Date,Open,High,Low,Close,Volume,Dividends,Stock Splits
2024-01-30 00:00:00-05:00,128.87356095519164,129.9082171791013,128.48312970262114,129.0883026123047,228400,0.0,0.0
2024-01-31 00:00:00-05:00,129.6072404814495,129.99890086291595,126.46424622437948,127.16921997070312,537500,0.41,0.0
2024-02-01 00:00:00-05:00,127.73712469360406,128.37355231227963,126.90485940119733,127.77628326416016,298800,0.0,0.0
2024-02-02 00:00:00-05:00,127.24755089870118,127.9818972994685,126.00405347678009,127.38462829589844,344800,0.0,0.0
2024-02-05 00:00:00-05:00,126.43486173135237,128.70643197001718,125.37740121082558,127.92312622070312,319500,0.0,0.0
2024-02-06 00:00:00-05:00,127.7566849400452,128.65748138443502,126.6013204593003,128.39312744140625,369700,0.0,0.0
2024-02-07 00:00:00-05:00,128.66728901474832,129.65620349228317,126.66985836466682,129.0491485595703,393000,0.0,0.0
2024-02-08 00:00:00-05:00,128.89247976183512,132.02568808606483,128.79456093219966,129.36245727539062,620700,0.0,0.0
2024-02-09 00:00:00-05:00,129.35267120840228,136.30448977507137,128.76518811194842,136.05970764160156,650900,0.0,0.0
2024-02-12 00:00:00-05:00,136.25552137822632,137.53817728260378,134.63995043963598,134.7378692626953,491300,0.0,0.0
2024-02-13 00:00:00-05:00,133.8370885700035,134.46373026630343,132.16277211721646,133.0929412841797,275900,0.0,0.0
2024-02-14 00:00:00-05:00,133.41605726205856,134.59102353082952,132.34881067689776,134.30706787109375,335000,0.0,0.0
2024-02-15 00:00:00-05:00,134.30704491833603,134.9336865157745,131.76131996512967,132.22149658203125,471400,0.0,0.0
2024-02-16 00:00:00-05:00,132.5446241819452,135.11973699396307,132.22150997455657,134.6301727294922,453900,0.0,0.0
2024-02-20 00:00:00-05:00,134.27767922539462,137.21506466705296,134.0916424236392,136.7744598388672,373000,0.0,0.0
2024-02-21 00:00:00-05:00,136.17719125904176,137.18569240168102,136.08907328121464,137.07798767089844,276300,0.0,0.0
2024-02-22 00:00:00-05:00,137.53820531547595,139.44750323176552,137.14655982404344,138.517333984375,295700,0.0,0.0
2024-02-23 00:00:00-05:00,139.00687592300707,139.0852079967368,137.66547464363427,138.40960693359375,190300,0.0,0.0
2024-02-26 00:00:00-05:00,138.54666886502756,139.09497837962624,137.86128197177922,138.95790100097656,199200,0.0,0.0
2024-02-27 00:00:00-05:00,138.957912963263,139.2124809911517,136.8821653535005,137.3815155029297,244600,0.0,0.0
2024-02-28 00:00:00-05:00,136.73526878204999,138.2920942209378,136.42195547745305,137.4794158935547,189600,0.0,0.0
2024-02-29 00:00:00-05:00,137.69486193698094,138.6739905521845,136.91155605675468,137.52841186523438,250600,0.0,0.0
2024-03-01 00:00:00-05:00,136.96049190925382,137.85148744113758,136.64716363494983,137.36192321777344,151400,0.0,0.0
2024-03-04 00:00:00-05:00,137.75358821860885,139.1537347734235,137.6262967353294,138.99708557128906,260300,0.0,0.0
2024-03-05 00:00:00-05:00,139.30061277790898,140.2209959378747,138.78167587968406,139.54539489746094,190200,0.0,0.0
2024-03-06 00:00:00-05:00,139.94683100550336,140.64201882254702,139.50622616330278,140.08392333984375,184000,0.0,0.0
2024-03-07 00:00:00-05:00,141.48405712283258,142.11069871593705,140.83782877798026,141.63092041015625,250100,0.0,0.0
2024-03-08 00:00:00-05:00,141.68968334205277,142.04217017860248,139.98599447534343,140.10348510742188,185200,0.0,0.0
2024-03-11 00:00:00-04:00,139.80976295804984,140.38746017321108,139.01667120100592,139.7608184814453,226700,0.0,0.0
2024-03-12 00:00:00-04:00,139.81955789559433,139.86851731044584,138.52710105703028,139.4376983642578,242200,0.0,0.0
2024-03-13 00:00:00-04:00,140.0153838553887,140.0153838553887,137.98858056808834,138.2137908935547,336800,0.0,0.0
2024-03-14 00:00:00-04:00,138.40958888204946,138.66415688323352,137.43046049859984,137.98855590820312,235200,0.0,0.0
2024-03-15 00:00:00-04:00,137.11715890165974,139.43770378098844,136.8234322817719,138.05712890625,599500,0.0,0.0
2024-03-18 00:00:00-04:00,137.98859769250436,138.35088546349817,136.0303403326256,136.35345458984375,299700,0.0,0.0
2024-03-19 00:00:00-04:00,135.98137998820624,137.3913275132948,135.98137998820624,136.5982208251953,253000,0.0,0.0
2024-03-20 00:00:00-04:00,136.7157296262476,137.14654859574253,136.2359512392525,137.0486297607422,220000,0.0,0.0
2024-03-21 00:00:00-04:00,137.38152014458856,138.64460430098922,136.39260571866635,138.19419860839844,255800,0.0,0.0
2024-03-22 00:00:00-04:00,139.04602830613464,139.4768472223314,138.1060733438097,138.63479614257812,276000,0.0,0.0
2024-03-25 00:00:00-04:00,138.25293589235656,141.0434579861113,138.22356323371196,139.97621154785156,316300,0.0,0.0
2024-03-26 00:00:00-04:00,139.8489241387062,141.29803012185278,139.64330058189233,140.21119689941406,314200,0.0,0.0
2024-03-27 00:00:00-04:00,140.67137406764476,142.12047990226964,140.67137406764476,141.64071655273438,218200,0.0,0.0
2024-03-28 00:00:00-04:00,141.79742300543492,142.3163600120605,140.65182929915187,140.88682556152344,247800,0.0,0.0
2024-04-01 00:00:00-04:00,140.78888320855557,140.78888320855557,139.15374037425366,139.3201904296875,204400,0.0,0.0
2024-04-02 00:00:00-04:00,138.8795765421151,138.8795765421151,137.45984326970637,137.69483947753906,202600,0.0,0.0
2024-04-03 00:00:00-04:00,137.73399742321058,138.24314840106996,136.95069167426877,137.9396209716797,258700,0.0,0.0
2024-04-04 00:00:00-04:00,138.8697901989138,139.77058658229822,138.02773913222396,138.7914581298828,403600,0.0,0.0
2024-04-05 00:00:00-04:00,138.42919508534143,139.78038228496015,138.00816205233073,138.77188110351562,288300,0.0,0.0
2024-04-08 00:00:00-04:00,138.71312411753408,139.40831188274808,137.45984091122554,137.57733154296875,312500,0.0,0.0
2024-04-09 00:00:00-04:00,137.4892202340201,138.15503537357404,136.45134642913885,137.3815155029297,242600,0.0,0.0
2024-04-10 00:00:00-04:00,136.07927684968575,137.29340158696237,135.56033993189132,136.49050903320312,200700,0.0,0.0
2024-04-11 00:00:00-04:00,136.3534270559702,137.11714607687958,135.56033537581934,136.2261505126953,265300,0.0,0.0
2024-04-12 00:00:00-04:00,135.2861816113603,136.04990063800145,133.12231601598205,134.33642578125,299200,0.0,0.0
2024-04-15 00:00:00-04:00,135.71701332081525,136.8919646309111,134.9532942222371,135.31556701660156,319600,0.0,0.0
2024-04-16 00:00:00-04:00,134.9141124076051,136.48072401817615,134.49309431469953,135.69741821289062,281700,0.0,0.0
2024-04-17 00:00:00-04:00,135.9813908214463,136.5688590434909,135.4624538354974,135.5113983154297,565400,0.0,0.0
2024-04-18 00:00:00-04:00,135.50158455374626,136.52967240638696,135.33513451136662,136.20655822753906,246600,0.0,0.0
2024-04-19 00:00:00-04:00,136.15760790834543,136.99965902269156,135.87366721481357,136.4317626953125,276600,0.0,0.0
2024-04-22 00:00:00-04:00,136.63736337863187,138.2039597646764,136.34362188740076,137.39129638671875,298800,0.0,0.0
2024-04-23 00:00:00-04:00,136.8527948444517,138.2137828639888,136.60801271906504,137.224853515625,417200,0.0,0.0
2024-04-24 00:00:00-04:00,137.43108780882525,138.36398610721017,137.12666978364035,137.49000549316406,559200,0.41,0.0
2024-04-25 00:00:00-04:00,137.32304457403384,138.707669865882,136.41960526574866,137.65692138671875,694400,0.0,0.0
2024-04-26 00:00:00-04:00,139.44418065051858,145.83700353816025,139.3459745296398,140.750244140625,489500,0.0,0.0
2024-04-29 00:00:00-04:00,142.29198855245357,145.35584293066114,141.77152903959532,143.745361328125,676700,0.0,0.0
2024-04-30 00:00:00-04:00,143.11687921960655,143.47040029775064,141.46710919355039,141.78135681152344,585100,0.0,0.0
2024-05-01 00:00:00-04:00,142.38037153909585,144.56041558796554,141.97774741652296,142.7633514404297,359600,0.0,0.0
2024-05-02 00:00:00-04:00,143.13650107704495,144.0890435167018,142.6749592770401,143.2936248779297,356500,0.0,0.0
2024-05-03 00:00:00-04:00,144.46219062383238,144.48183484250924,142.23304380468616,144.16758728027344,303300,0.0,0.0
2024-05-06 00:00:00-04:00,145.10050718187043,146.39675609462375,144.51131539037863,146.3574676513672,260200,0.0,0.0
2024-05-07 00:00:00-04:00,145.6504421901758,147.67336250101417,145.6504421901758,147.02523803710938,392900,0.0,0.0
2024-05-08 00:00:00-04:00,147.02523988257218,148.1545354150032,146.7895541697891,148.0759735107422,223500,0.0,0.0
2024-05-09 00:00:00-04:00,148.28219977529417,148.99905654553297,145.9548614346765,146.39675903320312,299100,0.0,0.0
2024-05-10 00:00:00-04:00,146.26911033900532,146.31821340744912,145.4245885078915,145.81739807128906,186300,0.0,0.0
2024-05-13 00:00:00-04:00,145.8566510618431,146.7895492947144,144.2167106982556,145.20852661132812,167500,0.0,0.0
2024-05-14 00:00:00-04:00,145.63080085717445,145.6406154762219,144.8157379516988,145.2379913330078,137600,0.0,0.0
2024-05-15 00:00:00-04:00,145.29691906696215,145.6700693720631,144.12833512148518,144.629150390625,211100,0.0,0.0
2024-05-16 00:00:00-04:00,144.71753727300873,145.2379968009917,143.79445358665347,144.8844757080078,235500,0.0,0.0
2024-05-17 00:00:00-04:00,145.1888834863617,145.50311607876148,144.48184142327574,145.01211547851562,169500,0.0,0.0
2024-05-20 00:00:00-04:00,144.9335655105072,145.73881375356336,144.39346180896348,145.5031280517578,163400,0.0,0.0
2024-05-21 00:00:00-04:00,145.2772782532513,146.00394964307074,144.44257113428725,145.9155731201172,280400,0.0,0.0
2024-05-22 00:00:00-04:00,145.40492664815366,146.15124217495384,144.8157199273145,146.11195373535156,283300,0.0,0.0
2024-05-23 00:00:00-04:00,145.98431714179043,146.26909092632513,144.9041097160021,145.0612335205078,171700,0.0,0.0
2024-05-24 00:00:00-04:00,145.80755573142952,146.15126219636196,144.70771901828797,145.42457580566406,162300,0.0,0.0
2024-05-28 00:00:00-04:00,144.96302199495298,145.12014579360385,143.19543170465636,144.0694122314453,318400,0.0,0.0
2024-05-29 00:00:00-04:00,143.02849673288384,144.05960119118265,141.90901574551282,142.2330780029297,229700,0.0,0.0
2024-05-30 00:00:00-04:00,142.51787327448253,144.3345669415198,142.39020829280838,143.5096893310547,328100,0.0,0.0
2024-05-31 00:00:00-04:00,143.46056078578843,145.16924837615784,143.29362236932735,145.03176879882812,358900,0.0,0.0
2024-06-03 00:00:00-04:00,145.8272087910232,145.8272087910232,143.64716447097067,145.4933319091797,266200,0.0,0.0
2024-06-04 00:00:00-04:00,144.99249225588795,145.7191786437799,144.0595939771539,145.5227813720703,287900,0.0,0.0
2024-06-05 00:00:00-04:00,145.06124737101146,145.53260384538314,144.4327670771318,145.2576446533203,229200,0.0,0.0
2024-06-06 00:00:00-04:00,145.34599146320716,145.34599146320716,142.782967745146,143.33290100097656,197600,0.0,0.0
2024-06-07 00:00:00-04:00,143.14632406296613,143.69624235649312,142.83207647572232,142.93028259277344,179100,0.0,0.0
2024-06-10 00:00:00-04:00,142.22322797928365,143.18558490819603,141.39835061164445,142.96954345703125,125800,0.0,0.0
2024-06-11 00:00:00-04:00,142.30181787355684,143.11688078441608,141.7518995202425,142.88119506835938,147700,0.0,0.0
2024-06-12 00:00:00-04:00,143.60790068905726,143.67663300035164,141.4769592924782,143.2052764892578,221300,0.0,0.0
2024-06-13 00:00:00-04:00,143.26419418012537,143.89267452296826,142.40985769423907,143.2052764892578,232400,0.0,0.0
2024-06-14 00:00:00-04:00,142.47856067350722,142.76334943294216,141.09393528655866,142.14468383789062,141500,0.0,0.0
2024-06-17 00:00:00-04:00,142.262529988864,144.03995002502072,141.96794157282253,143.69625854492188,303800,0.0,0.0
2024-06-18 00:00:00-04:00,143.84353206541186,145.03176011444367,143.83371744767248,144.0497589111328,219900,0.0,0.0
2024-06-20 00:00:00-04:00,144.02031501321562,144.87465135378994,143.04812832679772,143.18560791015625,199900,0.0,0.0
2024-06-21 00:00:00-04:00,143.24452187818218,144.49166769899176,142.69460355900168,144.20689392089844,444100,0.0,0.0
2024-06-24 00:00:00-04:00,144.57023956530952,145.56205553190514,144.03013582740047,144.07923889160156,182900,0.0,0.0
2024-06-25 00:00:00-04:00,144.1479869383669,144.15781654277157,141.89921020019392,142.2527313232422,194500,0.0,0.0
2024-06-26 00:00:00-04:00,141.65370250979515,142.18397667486374,140.38692729181602,141.12342834472656,192400,0.0,0.0
2024-06-27 00:00:00-04:00,141.280517578125,141.29034718065736,139.70932454041687,141.280517578125,377300,0.0,0.0
2024-06-28 00:00:00-04:00,141.1921493835531,141.72243849045483,137.5685620949453,138.27560424804688,435100,0.0,0.0
2024-07-01 00:00:00-04:00,138.83535828747213,138.933549433841,135.89916880106614,136.0464630126953,306400,0.0,0.0
2024-07-02 00:00:00-04:00,135.9875450145778,137.97119197013797,135.2805028320841,137.87298583984375,259400,0.0,0.0
2024-07-03 00:00:00-04:00,138.34434581557062,138.85497569514482,138.03992781470706,138.67822265625,143300,0.0,0.0
2024-07-05 00:00:00-04:00,138.45237466307032,138.89427227033218,137.2150433817555,138.36398315429688,207000,0.0,0.0
2024-07-08 00:00:00-04:00,139.10046174415234,139.9351687443572,138.95316756018627,138.96298217773438,249300,0.0,0.0
2024-07-09 00:00:00-04:00,138.32471855963942,138.72734273203724,137.23469640031377,137.51947021484375,238400,0.0,0.0
2024-07-10 00:00:00-04:00,138.21667416700603,139.08084005086445,138.03992113666214,138.7469482421875,142000,0.0,0.0
2024-07-11 00:00:00-04:00,138.6585665279022,140.72077504282205,138.216668984462,139.5325469970703,244500,0.0,0.0
2024-07-12 00:00:00-04:00,140.8288097476232,142.87137424563738,140.8288097476232,141.98756408691406,263900,0.0,0.0
2024-07-15 00:00:00-04:00,142.1545133309416,143.06778239939624,140.56367590194864,140.84844970703125,319900,0.0,0.0
2024-07-16 00:00:00-04:00,141.2609020474861,142.68480102686743,141.2609020474861,141.95811462402344,178800,0.0,0.0
2024-07-17 00:00:00-04:00,141.74208637124957,143.146356243191,141.74208637124957,142.2527313232422,242300,0.0,0.0
2024-07-18 00:00:00-04:00,142.00720022663762,144.5996829065469,141.99738560851006,143.6471405029297,434200,0.0,0.0
2024-07-19 00:00:00-04:00,143.95157307665585,143.95157307665585,142.056317679659,143.3132781982422,251200,0.0,0.0
2024-07-22 00:00:00-04:00,143.36237293963097,144.90410716476552,142.63568659469945,144.540771484375,235700,0.0,0.0
2024-07-23 00:00:00-04:00,145.20853274870527,145.837013004333,143.04813280649452,143.41146850585938,234500,0.0,0.0
2024-07-24 00:00:00-04:00,143.44093989355278,143.99085823486217,141.30998384475248,141.54566955566406,250600,0.0,0.0
2024-07-25 00:00:00-04:00,140.69852411263045,141.90031903644186,139.11254982996647,139.37852478027344,558100,0.45,0.0
2024-07-26 00:00:00-04:00,140.99403954017995,149.03225436821083,140.2256808803761,144.4713592529297,562800,0.0,0.0
2024-07-29 00:00:00-04:00,144.39255026819245,146.13614030567112,143.0035884581488,145.59434509277344,390900,0.0,0.0
2024-07-30 00:00:00-04:00,145.18061582106415,145.69284490726275,143.24001342647648,143.57493591308594,411000,0.0,0.0
2024-07-31 00:00:00-04:00,144.3137274810093,146.62866359296467,143.23999755294346,144.78656005859375,280600,0.0,0.0
2024-08-01 00:00:00-04:00,144.68805994790043,147.3083523550759,143.25968681226828,144.8358154296875,335300,0.0,0.0
2024-08-02 00:00:00-04:00,144.39254100485536,144.8062714051408,141.6047722074081,143.5158233642578,213500,0.0,0.0
2024-08-05 00:00:00-04:00,141.28954256509508,141.28954256509508,137.3984926421392,138.58058166503906,448500,0.0,0.0
2024-08-06 00:00:00-04:00,139.2208988569605,143.90985877495493,139.004180769512,142.7671661376953,476000,0.0,0.0
2024-08-07 00:00:00-04:00,143.83103934509134,145.0623851840431,141.32895121401526,141.45701599121094,353600,0.0,0.0
2024-08-08 00:00:00-04:00,142.3041810393727,143.97880835659416,142.3041810393727,143.38775634765625,268600,0.0,0.0
2024-08-09 00:00:00-04:00,143.24000692951807,143.24000692951807,141.32895572154177,141.80178833007812,263200,0.0,0.0
2024-08-12 00:00:00-04:00,141.82150185638116,142.02835955787225,140.63941275462523,141.15164184570312,221100,0.0,0.0
2024-08-13 00:00:00-04:00,141.36834859273043,143.1316442630569,140.9644785785287,142.21551513671875,212000,0.0,0.0
2024-08-14 00:00:00-04:00,141.97911142530356,142.64895637508786,141.3486629303569,141.75253295898438,115700,0.0,0.0
2024-08-15 00:00:00-04:00,142.83613268099353,145.14120873197274,142.83613268099353,144.81613159179688,277500,0.0,0.0
2024-08-16 00:00:00-04:00,143.92954395140833,144.64864566732285,143.43700564687694,144.5304412841797,250600,0.0,0.0
2024-08-19 00:00:00-04:00,144.13643951342476,145.52538632887624,143.74239978865813,144.7767333984375,191200,0.0,0.0
2024-08-20 00:00:00-04:00,144.78657769172244,146.0967315836786,144.78657769172244,145.89971923828125,387200,0.0,0.0
2024-08-21 00:00:00-04:00,145.95880891606805,147.33792527768335,145.25941289525127,147.10150146484375,267300,0.0,0.0
2024-08-22 00:00:00-04:00,147.3379326065185,148.1555330588853,146.45135453757797,146.76658630371094,200400,0.0,0.0
2024-08-23 00:00:00-04:00,147.42657245924363,148.2835843197592,147.20985439756072,148.19493103027344,221400,0.0,0.0
2024-08-26 00:00:00-04:00,148.431357505698,150.39166564979055,147.89942267426275,147.91912841796875,235500,0.0,0.0
2024-08-27 00:00:00-04:00,147.77135976302682,149.27852600748776,147.60389851709544,148.943603515625,208300,0.0,0.0
2024-08-28 00:00:00-04:00,148.67760608240272,149.7020941779954,148.67760608240272,149.27850341796875,249000,0.0,0.0
2024-08-29 00:00:00-04:00,150.27343643518816,150.628064607945,148.95343741534498,150.00746154785156,187100,0.0,0.0
2024-08-30 00:00:00-04:00,149.9286688147789,151.15016931833227,149.377028274812,150.90390014648438,178500,0.0,0.0
2024-09-03 00:00:00-04:00,149.8400193299736,150.10599425103322,147.4955319444296,147.8009033203125,362400,0.0,0.0
2024-09-04 00:00:00-04:00,147.36747963450603,148.64806731357916,147.36747963450603,148.48060607910156,175800,0.0,0.0
2024-09-05 00:00:00-04:00,148.82537708469354,149.49522196926762,147.71223569765428,148.4707489013672,200600,0.0,0.0
2024-09-06 00:00:00-04:00,148.13584927043814,150.83494999648312,148.13584927043814,150.1060028076172,319100,0.0,0.0
2024-09-09 00:00:00-04:00,150.29317492679476,150.77585293998283,149.1800333303618,149.6430206298828,241500,0.0,0.0
2024-09-10 00:00:00-04:00,149.6036059034956,150.509874738183,149.18003010263163,149.2489776611328,158100,0.0,0.0
2024-09-11 00:00:00-04:00,148.53970190136596,148.62837022375984,146.41194775437302,148.58895874023438,178000,0.0,0.0
2024-09-12 00:00:00-04:00,148.63822146674445,149.74150255192956,147.73195271375994,149.6922607421875,200400,0.0,0.0
2024-09-13 00:00:00-04:00,149.91880826243133,150.7265632480533,149.6331276346427,150.00746154785156,138600,0.0,0.0
2024-09-16 00:00:00-04:00,150.75615099617576,150.88421579363612,149.80064030254235,150.7069091796875,182900,0.0,0.0
2024-09-17 00:00:00-04:00,151.70181775324176,153.2483954478514,149.60359948995645,150.7462921142578,259900,0.0,0.0
2024-09-18 00:00:00-04:00,151.4653805712622,153.16957400127043,150.43106211172218,150.7856903076172,214200,0.0,0.0
2024-09-19 00:00:00-04:00,152.70659868608976,156.44003287404942,152.70659868608976,154.55853271484375,412400,0.0,0.0
2024-09-20 00:00:00-04:00,153.9773376586308,153.9773376586308,152.17464548118008,153.58331298828125,663300,0.0,0.0
2024-09-23 00:00:00-04:00,153.83941076911725,154.56837286407173,152.43075844648385,153.63255310058594,315800,0.0,0.0
2024-09-24 00:00:00-04:00,153.8492602560699,154.7358382382443,153.70150477457904,154.2925567626953,246200,0.0,0.0
2024-09-25 00:00:00-04:00,154.95256827239905,155.51405417652938,153.54390077200065,154.79495239257812,284100,0.0,0.0
2024-09-26 00:00:00-04:00,155.58301283158644,156.68629390031595,155.34658901782558,156.01644897460938,371600,0.0,0.0
2024-09-27 00:00:00-04:00,156.31195688011874,159.1391371097761,155.89822648747847,157.50390625,354300,0.0,0.0
2024-09-30 00:00:00-04:00,156.91286043073308,158.02600190814087,156.5582322186168,157.7994384765625,289800,0.0,0.0
2024-10-01 00:00:00-04:00,158.1442037876368,158.1442037876368,156.6764491525247,157.5827178955078,192200,0.0,0.0
2024-10-02 00:00:00-04:00,157.4743714739209,157.72064066395075,155.60273164212558,156.3809356689453,186900,0.0,0.0
2024-10-03 00:00:00-04:00,155.6322800757233,158.06542083401308,154.30242045991758,156.56809997558594,367000,0.0,0.0
2024-10-04 00:00:00-04:00,157.55317575699624,159.06034196246668,156.95227834604486,158.18362426757812,350500,0.0,0.0
2024-10-07 00:00:00-04:00,157.01137380033816,157.25764297406545,155.6519631514186,156.3218231201172,223300,0.0,0.0
2024-10-08 00:00:00-04:00,155.91794469733082,156.6469068937468,154.75556136283095,156.3021240234375,205900,0.0,0.0
2024-10-09 00:00:00-04:00,155.98689745116081,157.66152479193522,155.76031899360427,157.31674194335938,152600,0.0,0.0
2024-10-10 00:00:00-04:00,155.6913647318979,157.00151845650754,155.6913647318979,156.84390258789062,168500,0.0,0.0
2024-10-11 00:00:00-04:00,158.53824750541833,159.5036184688207,157.95705585620203,159.13914489746094,194400,0.0,0.0
2024-10-14 00:00:00-04:00,162.5278110606361,165.25646271264634,161.02064490362383,164.69497680664062,469700,0.0,0.0
2024-10-15 00:00:00-04:00,164.82304506735403,167.1281209995481,164.00542958075638,166.16273498535156,397300,0.0,0.0
2024-10-16 00:00:00-04:00,166.18244150078093,166.6749798662433,163.4439293912965,163.5621337890625,330000,0.0,0.0
2024-10-17 00:00:00-04:00,164.488098107437,165.8081122685309,164.03497125675165,165.384521484375,238200,0.0,0.0
2024-10-18 00:00:00-04:00,166.57648214165218,166.57648214165218,165.2761736346556,166.11349487304688,171500,0.0,0.0
2024-10-21 00:00:00-04:00,165.95585691340412,165.97556265421332,163.8182424834258,163.84779357910156,217900,0.0,0.0
2024-10-22 00:00:00-04:00,163.24693324073522,163.8872271669038,162.35050971923553,163.33558654785156,228500,0.0,0.0
2024-10-23 00:00:00-04:00,164.02511497624792,165.47317891952764,163.68034715184834,165.14810180664062,318100,0.0,0.0
2024-10-24 00:00:00-04:00,166.25437089703468,166.26424275049317,164.1109880455168,164.50608825683594,547300,0.45,0.0
2024-10-25 00:00:00-04:00,166.84699953906053,167.76559434792017,162.58989458720737,166.83712768554688,518900,0.0,0.0
2024-10-28 00:00:00-04:00,167.81498113361118,169.30646005905672,166.688971816726,167.02481079101562,350000,0.0,0.0
2024-10-29 00:00:00-04:00,166.955651734335,167.41001321614593,165.58271050683078,166.62969970703125,338100,0.0,0.0
2024-10-30 00:00:00-04:00,166.2839949747243,168.11128251363084,166.05680671034608,166.9556427001953,290300,0.0,0.0
2024-10-31 00:00:00-04:00,167.0149074427507,168.1903060583551,165.80000634251405,165.84939575195312,329900,0.0,0.0
2024-11-01 00:00:00-04:00,166.03705732375843,168.891590202414,165.56293710508388,167.3309783935547,316300,0.0,0.0
2024-11-04 00:00:00-05:00,167.54828102947104,168.47674762551887,166.1160635811035,166.19508361816406,191800,0.0,0.0
2024-11-05 00:00:00-05:00,165.6815022887005,168.2693448592814,165.6815022887005,168.21995544433594,206200,0.0,0.0
2024-11-06 00:00:00-05:00,173.00054209288007,173.00054209288007,170.0274864290188,171.03497314453125,264100,0.0,0.0
2024-11-07 00:00:00-05:00,172.06219761024633,173.3067444132421,171.4102935773944,172.56594848632812,412300,0.0,0.0
2024-11-08 00:00:00-05:00,172.55605348627586,175.65751835228596,172.34863907650424,173.60304260253906,309200,0.0,0.0
2024-11-11 00:00:00-05:00,174.15619299950882,175.84519929208736,173.74133401275535,173.98826599121094,189100,0.0,0.0
2024-11-12 00:00:00-05:00,174.48213123535686,175.0649021631757,172.80299678377733,173.54379272460938,179800,0.0,0.0
2024-11-13 00:00:00-05:00,173.3462371826172,174.22531436375897,172.90176266568588,173.3462371826172,168400,0.0,0.0
2024-11-14 00:00:00-05:00,173.0005422185195,173.63268749563633,171.77576922184258,171.96343994140625,198200,0.0,0.0
2024-11-15 00:00:00-05:00,170.84731153010915,171.62761001025086,164.13075818796634,164.44683837890625,620500,0.0,0.0
2024-11-18 00:00:00-05:00,164.3480572551266,165.76051609741364,162.3133400368618,164.64437866210938,384400,0.0,0.0
2024-11-19 00:00:00-05:00,164.3776861785157,165.61234613515475,164.16038482042458,164.85179138183594,287600,0.0,0.0
2024-11-20 00:00:00-05:00,164.95056714712908,166.86676177573253,163.61712839008123,166.65933227539062,221800,0.0,0.0
2024-11-21 00:00:00-05:00,166.61982839227232,168.14092278641004,165.6814898648052,167.79522705078125,205100,0.0,0.0
2024-11-22 00:00:00-05:00,168.0915324425654,169.95835270503898,168.0915324425654,169.40521240234375,241600,0.0,0.0
2024-11-25 00:00:00-05:00,169.93859733485252,171.88442260806409,169.6324040808553,170.38307189941406,270100,0.0,0.0
2024-11-26 00:00:00-05:00,170.73863976432673,170.73863976432673,169.0595054040264,169.92869567871094,140300,0.0,0.0
2024-11-27 00:00:00-05:00,170.5509794809398,171.74613690502596,169.4150983926073,169.6225128173828,167200,0.0,0.0
2024-11-29 00:00:00-05:00,170.47197849733683,171.36094277464528,169.9781144782323,170.8374481201172,117300,0.0,0.0
2024-12-02 00:00:00-05:00,170.8571786767367,170.9855881347097,168.7434414405468,170.63987731933594,170900,0.0,0.0
2024-12-03 00:00:00-05:00,171.32140382396798,171.32140382396798,168.9903653419581,170.28428649902344,160100,0.0,0.0
2024-12-04 00:00:00-05:00,169.78054783121863,170.76827572949122,168.9311012358429,170.47195434570312,173400,0.0,0.0
2024-12-05 00:00:00-05:00,169.89908038553693,170.32381124406317,168.43724722982796,169.00025939941406,245000,0.0,0.0
2024-12-06 00:00:00-05:00,169.49411118775066,170.5312134103454,168.75331527359359,169.04962158203125,209200,0.0,0.0
2024-12-09 00:00:00-05:00,169.45461607190833,171.34118020028646,168.14093600159163,168.69406127929688,301700,0.0,0.0
2024-12-10 00:00:00-05:00,168.62490558451546,169.26692268058784,166.1259552433873,168.8125762939453,287000,0.0,0.0
2024-12-11 00:00:00-05:00,169.7706882600862,171.96344555860944,169.6422788011308,170.19540405273438,418600,0.0,0.0
2024-12-12 00:00:00-05:00,169.56324574340024,170.4818405219571,168.68416852065852,169.5336151123047,178300,0.0,0.0
2024-12-13 00:00:00-05:00,168.81259109812913,168.9014829983288,167.735971227179,168.11129760742188,153200,0.0,0.0
2024-12-16 00:00:00-05:00,168.05203725328025,168.83233572293636,165.5333278998814,165.57284545898438,236100,0.0,0.0
2024-12-17 00:00:00-05:00,164.85178780773057,164.86167473295026,160.84161476695553,161.0885467529297,511900,0.0,0.0
2024-12-18 00:00:00-05:00,161.68119290074782,162.4022300947158,155.97212647235614,156.26844787597656,468600,0.0,0.0
2024-12-19 00:00:00-05:00,156.56476642331307,159.58722689021582,156.28820377743185,156.92034912109375,404700,0.0,0.0
2024-12-20 00:00:00-05:00,156.77218158240578,157.81917079898025,155.53752164370331,156.23880004882812,730200,0.0,0.0
2024-12-23 00:00:00-05:00,155.24120717415673,156.949972385572,155.0337927352538,156.57464599609375,194900,0.0,0.0
2024-12-24 00:00:00-05:00,156.8314427898795,157.4635880753995,155.98199614950582,157.3944549560547,100500,0.0,0.0
2024-12-26 00:00:00-05:00,156.47585813869574,157.67101557522113,156.47585813869574,156.9005889892578,164500,0.0,0.0
2024-12-27 00:00:00-05:00,155.88323052363847,157.62162627003977,155.6758010250324,156.20916748046875,145000,0.0,0.0
2024-12-30 00:00:00-05:00,155.07328561079504,155.55727772412172,153.0978297431416,154.8065948486328,221700,0.0,0.0
2024-12-31 00:00:00-05:00,155.34987244451548,156.30796989541076,154.2633655193143,155.17208862304688,317100,0.0,0.0
2025-01-02 00:00:00-05:00,155.71530356167833,156.16966504511277,151.56684923199984,152.2681427001953,239400,0.0,0.0
2025-01-03 00:00:00-05:00,152.14960068285353,153.80899140948185,150.99396083629736,153.59169006347656,250700,0.0,0.0
2025-01-06 00:00:00-05:00,152.1100981713301,152.74224343099903,149.58151713265437,151.04335021972656,369000,0.0,0.0
2025-01-07 00:00:00-05:00,154.00653658731684,154.1448178942518,150.72728770648897,151.54708862304688,361200,0.0,0.0
2025-01-08 00:00:00-05:00,151.01372323373394,152.36690568048937,150.22353787218913,152.2582550048828,228600,0.0,0.0
2025-01-10 00:00:00-05:00,150.84581158167944,152.40642352904024,150.7075302735099,151.5668487548828,350800,0.0,0.0
2025-01-13 00:00:00-05:00,151.05322414667478,152.8015067917635,151.05322414667478,152.00144958496094,349300,0.0,0.0
2025-01-14 00:00:00-05:00,152.9101585386284,153.54230381140852,151.59647858222723,152.71261596679688,196900,0.0,0.0
2025-01-15 00:00:00-05:00,154.2040804325051,154.99426579503287,152.278013973022,153.6509552001953,206100,0.0,0.0
2025-01-16 00:00:00-05:00,153.97690156450915,155.24119206944306,153.40401757453412,154.4905242919922,346300,0.0,0.0
2025-01-17 00:00:00-05:00,155.04365916347115,156.01162834471992,153.76948165438378,154.17445373535156,231900,0.0,0.0
2025-01-21 00:00:00-05:00,154.7967112874925,158.2932612773146,154.7967112874925,157.86854553222656,270900,0.0,0.0
2025-01-22 00:00:00-05:00,157.38458037916683,158.777280515946,156.39685235107385,157.11790466308594,280000,0.0,0.0
2025-01-23 00:00:00-05:00,156.51537982846705,157.84880353713106,155.79432756314424,157.6611328125,149800,0.0,0.0
2025-01-24 00:00:00-05:00,157.69075395064,158.50069806679787,155.2905823766471,156.35733032226562,329600,0.0,0.0
2025-01-27 00:00:00-05:00,156.3079513540658,156.9697272858119,154.7275805724258,156.515380859375,317000,0.0,0.0
2025-01-28 00:00:00-05:00,155.6363008780896,158.38218338328682,155.6363008780896,156.47586059570312,204300,0.0,0.0
2025-01-29 00:00:00-05:00,156.8314497428212,156.87096730265517,154.69795365778037,155.18194580078125,265800,0.0,0.0
2025-01-30 00:00:00-05:00,155.8832293601482,156.73266091243917,154.6584412995214,156.18942260742188,274200,0.0,0.0
2025-01-31 00:00:00-05:00,155.96224681346368,157.4339669747109,154.8362374844696,155.22145080566406,834100,0.0,0.0
2025-02-03 00:00:00-05:00,152.68298284661782,154.8263506127043,152.24838015275108,154.0657958984375,364600,0.0,0.0
2025-02-04 00:00:00-05:00,154.17445161647603,156.51537709930176,154.17445161647603,155.7646942138672,302400,0.0,0.0
2025-02-05 00:00:00-05:00,156.78496957437233,158.15193966050393,156.28969231008264,156.82460021972656,262600,0.45,0.0
2025-02-06 00:00:00-05:00,158.3302389106695,158.3302389106695,153.90245877165594,154.97225952148438,446600,0.0,0.0
2025-02-07 00:00:00-05:00,156.13120083363538,156.4085548940201,140.69835937805564,141.8275909423828,1221500,0.0,0.0
2025-02-10 00:00:00-05:00,142.89737483931424,143.23417482843493,139.56911139164734,141.9266357421875,621900,0.0,0.0
2025-02-11 00:00:00-05:00,140.92618368057745,141.718630251403,138.93515959311242,140.94598388671875,377300,0.0,0.0
2025-02-12 00:00:00-05:00,139.63847169913737,142.1346733181671,138.60828653556084,140.361572265625,423500,0.0,0.0
2025-02-13 00:00:00-05:00,141.4016629482476,142.42193293232637,140.1238542207432,141.42147827148438,665900,0.0,0.0
2025-02-14 00:00:00-05:00,142.33277766540417,143.93747110903965,141.37193859702288,143.42237854003906,512800,0.0,0.0
2025-02-18 00:00:00-05:00,143.42239559513484,145.89878212468776,142.54080259520055,145.51246643066406,489600,0.0,0.0
2025-02-19 00:00:00-05:00,144.7596300671168,146.09688465141588,144.23463740564512,145.651123046875,331000,0.0,0.0
2025-02-20 00:00:00-05:00,145.58180970137414,146.02755624516584,144.5417243560844,145.29454040527344,283100,0.0,0.0
2025-02-21 00:00:00-05:00,145.64121813639457,145.99781833946028,143.82850169703235,144.95773315429688,451900,0.0,0.0
2025-02-24 00:00:00-05:00,144.79925789610297,145.89877405902692,142.9964564618772,144.23464965820312,353300,0.0,0.0
2025-02-25 00:00:00-05:00,144.50208762463168,146.92894299785002,144.3435952855276,146.31480407714844,336700,0.0,0.0
2025-02-26 00:00:00-05:00,145.2648134339398,147.7709151452162,145.23509800769241,145.25491333007812,735600,0.0,0.0
2025-02-27 00:00:00-05:00,144.8487791930552,145.78980293791258,143.9870016213501,144.25445556640625,262800,0.0,0.0
2025-02-28 00:00:00-05:00,144.77945280135046,145.56198422456703,143.26390558936882,145.36387634277344,348700,0.0,0.0
2025-03-03 00:00:00-05:00,145.58179885466237,147.43413096834846,144.31389027961936,145.20538330078125,394100,0.0,0.0
2025-03-04 00:00:00-05:00,144.1652925761329,146.55253250388583,143.7690768294277,144.5615234375,490100,0.0,0.0
2025-03-05 00:00:00-05:00,144.67049334875352,147.44404907906232,144.67049334875352,147.0379180908203,445100,0.0,0.0
2025-03-06 00:00:00-05:00,146.16621830199009,150.06900541563368,145.67094105639393,149.72230529785156,471700,0.0,0.0
2025-03-07 00:00:00-05:00,149.0883661658677,151.9114527982747,147.77092674505536,151.33692932128906,480200,0.0,0.0
2025-03-10 00:00:00-04:00,150.63364377483086,152.54540687872705,148.8209270611487,149.14781188964844,391100,0.0,0.0
2025-03-11 00:00:00-04:00,148.91995850666456,149.13788170379496,145.87896407979193,146.49310302734375,304000,0.0,0.0
2025-03-12 00:00:00-04:00,146.83981276027296,146.83981276027296,144.18511869169714,144.6506805419922,299700,0.0,0.0
2025-03-13 00:00:00-04:00,145.0270937364904,145.80962517214004,142.40211513836567,143.39266967773438,238400,0.0,0.0
2025-03-14 00:00:00-04:00,143.85823362542143,145.50255781235316,143.17474856490986,145.2747344970703,223600,0.0,0.0
2025-03-17 00:00:00-04:00,145.12613370517485,146.60206534485752,144.482279328917,146.44357299804688,225200,0.0,0.0
2025-03-18 00:00:00-04:00,145.99783745033196,146.13651448552892,144.4030439882353,144.9181365966797,219900,0.0,0.0
2025-03-19 00:00:00-04:00,144.95773581468725,146.0671670860647,144.09595827257124,145.59169006347656,279600,0.0,0.0
2025-03-20 00:00:00-04:00,144.74974534584615,146.0275541012439,142.37240528942087,143.82852172851562,332800,0.0,0.0
2025-03-21 00:00:00-04:00,142.63985592972824,144.0860722305786,141.01534706400395,143.45211791992188,601900,0.0,0.0
2025-03-24 00:00:00-04:00,144.373315607197,146.7803557410134,143.5412534706675,146.5921630859375,463800,0.0,0.0
2025-03-25 00:00:00-04:00,147.08744285003115,147.82044350517103,144.55161063882232,145.8195343017578,325200,0.0,0.0
2025-03-26 00:00:00-04:00,145.66103699900552,147.29544581924438,144.91812115077664,147.15676879882812,630400,0.0,0.0
2025-03-27 00:00:00-04:00,146.87941526042871,148.47420855800183,145.64122217581178,147.93931579589844,312700,0.0,0.0
2025-03-28 00:00:00-04:00,147.87986917209872,148.58316949147616,144.38321312590557,145.5421600341797,239800,0.0,0.0
2025-03-31 00:00:00-04:00,145.1954839412941,147.68177035524897,144.72002200188086,146.97848510742188,372500,0.0,0.0
2025-04-01 00:00:00-04:00,147.47377294690932,148.612904685345,145.98794105434266,147.6916961669922,240000,0.0,0.0
2025-04-02 00:00:00-04:00,146.60206784824211,149.70250830902188,146.60206784824211,149.10816955566406,247600,0.0,0.0
2025-04-03 00:00:00-04:00,145.37378420173204,148.63271722253594,145.07662992052116,147.2657470703125,352900,0.0,0.0
2025-04-04 00:00:00-04:00,143.8483298002135,146.56245464887016,138.71724948430474,138.85592651367188,531600,0.0,0.0
2025-04-07 00:00:00-04:00,135.05219810762017,140.7776019595379,129.61406352747676,133.37815856933594,629900,0.0,0.0
2025-04-08 00:00:00-04:00,136.08238602968135,137.99414901559882,130.03999735696206,132.39752197265625,473800,0.0,0.0
2025-04-09 00:00:00-04:00,131.92204340732616,143.05588162713724,130.07962651454883,142.3922119140625,491800,0.0,0.0
2025-04-10 00:00:00-04:00,138.67763443664703,142.0157983717514,136.27059417967757,139.43045043945312,309000,0.0,0.0
2025-04-11 00:00:00-04:00,139.5394227040717,143.34316388353207,138.4201062757106,142.7488250732422,203000,0.0,0.0
2025-04-14 00:00:00-04:00,144.42284856795507,145.01717219687393,142.43182435722224,144.41293334960938,249300,0.0,0.0
2025-04-15 00:00:00-04:00,144.72003060367427,145.1558619238213,142.41203661181956,142.58042907714844,250700,0.0,0.0
2025-04-16 00:00:00-04:00,142.69927796874322,144.44266355134033,141.22336144625882,143.63040161132812,307700,0.0,0.0
2025-04-17 00:00:00-04:00,144.026628884614,144.38322913552085,139.38094063303606,142.47146606445312,390600,0.0,0.0
2025-04-21 00:00:00-04:00,141.94647688677207,142.68939283511736,139.7672597945586,141.2332763671875,291600,0.0,0.0
2025-04-22 00:00:00-04:00,143.13513046097071,145.43322423967282,142.23372220563516,144.64077758789062,217800,0.0,0.0
2025-04-23 00:00:00-04:00,146.47330364077322,147.90961990030237,145.82944919762568,146.651611328125,537000,0.0,0.0
2025-04-24 00:00:00-04:00,146.53273210549278,150.56429651051678,144.08607619268724,150.02940368652344,424500,0.0,0.0
2025-04-25 00:00:00-04:00,149.42515488201633,151.5548410469417,146.1761372765882,147.6520538330078,220500,0.0,0.0
2025-04-28 00:00:00-04:00,148.3850722414695,149.60345008639197,146.87942511742685,148.2860107421875,235200,0.0,0.0
2025-04-29 00:00:00-04:00,148.34543269560234,150.54446483869538,147.60251683954823,148.88034057617188,359900,0.0,0.0
2025-04-30 00:00:00-04:00,147.6619679397673,148.57327627446125,145.8195359480902,148.5336456298828,556200,0.0,0.0
2025-05-01 00:00:00-04:00,147.49043252263488,149.55698945100644,146.01007342098333,147.321533203125,445300,0.45,0.0
2025-05-02 00:00:00-04:00,152.00109276483386,152.01102266813578,146.83469293818283,151.01748657226562,431600,0.0,0.0
2025-05-05 00:00:00-04:00,150.45115939800078,152.22959744819886,149.9047266890984,150.50083923339844,267600,0.0,0.0
2025-05-06 00:00:00-04:00,149.27879067725587,151.05721352633617,148.45415394115105,149.9444580078125,312000,0.0,0.0
2025-05-07 00:00:00-04:00,150.89826085399986,152.16004072828045,149.64639572245358,150.4114227294922,318400,0.0,0.0
2025-05-08 00:00:00-04:00,150.8088240511965,153.57086810201378,150.26239137467758,152.36868286132812,302500,0.0,0.0
2025-05-09 00:00:00-04:00,152.91514690205906,153.30262538000602,151.95141565893186,152.32896423339844,231600,0.0,0.0
2025-05-12 00:00:00-04:00,154.78298382447863,155.57781574408938,152.70649699411595,154.51473999023438,352500,0.0,0.0
2025-05-13 00:00:00-04:00,155.2996361136822,155.2996361136822,152.20973802242366,152.6468963623047,339400,0.0,0.0
2025-05-14 00:00:00-04:00,152.6269999738617,152.6269999738617,149.99413556020957,151.49436950683594,350100,0.0,0.0
2025-05-15 00:00:00-04:00,151.36522536472287,154.47498293511407,151.36522536472287,153.9484100341797,278100,0.0,0.0
2025-05-16 00:00:00-04:00,154.1769139151355,156.13418110776666,153.59073129565786,155.99508666992188,278600,0.0,0.0
2025-05-19 00:00:00-04:00,155.34931362403165,157.316510963831,155.2996337843069,157.05819702148438,185400,0.0,0.0
2025-05-20 00:00:00-04:00,159.2240927799544,159.2240927799544,156.88929199923413,157.50527954101562,388100,0.0,0.0
2025-05-21 00:00:00-04:00,155.84607414489565,156.63096099792108,154.8227331688479,155.438720703125,319800,0.0,0.0
2025-05-22 00:00:00-04:00,155.34930186196166,156.24347826867125,154.55446996702122,155.63742065429688,278900,0.0,0.0
2025-05-23 00:00:00-04:00,154.11731521461456,155.1704610565874,153.2628735609117,154.93202209472656,260500,0.0,0.0
2025-05-27 00:00:00-04:00,156.01496421082626,157.41585367520375,155.67716559336355,157.13766479492188,352800,0.0,0.0
2025-05-28 00:00:00-04:00,157.13766546061635,157.81326269840386,156.2434739186448,156.382568359375,364400,0.0,0.0
2025-05-29 00:00:00-04:00,156.80979630695364,157.6443629490057,155.80633035592606,157.3065643310547,232100,0.0,0.0
2025-05-30 00:00:00-04:00,157.21714439221134,157.75364716957276,155.52812103943535,157.3760986328125,335100,0.0,0.0
2025-06-02 00:00:00-04:00,156.52166938265543,158.0417935519205,154.25640830397938,155.895751953125,349600,0.0,0.0
2025-06-03 00:00:00-04:00,155.1704542609852,156.42231939656108,154.99162504742128,155.24993896484375,397800,0.0,0.0
2025-06-04 00:00:00-04:00,155.4784762168023,155.50828108823,149.31854001233395,149.43777465820312,831900,0.0,0.0
2025-06-05 00:00:00-04:00,150.60021195802307,152.34883013042466,148.0865667026264,151.50433349609375,482400,0.0,0.0
2025-06-06 00:00:00-04:00,153.37216133250158,153.48145090878683,151.22613490023483,152.3190155029297,264700,0.0,0.0
2025-06-09 00:00:00-04:00,151.72289703426236,152.18984503093586,150.3816173012118,150.6200714111328,388400,0.0,0.0
2025-06-10 00:00:00-04:00,151.17644863767038,152.01101527919693,149.8848487437896,151.54405212402344,323500,0.0,0.0
2025-06-11 00:00:00-04:00,152.01102435470298,152.59720701933225,150.62007986911524,150.93800354003906,380800,0.0,0.0
2025-06-12 00:00:00-04:00,150.43129651800584,153.62053873925785,150.43129651800584,153.352294921875,337200,0.0,0.0
2025-06-13 00:00:00-04:00,152.01100972682164,152.7263568677604,149.75567873635768,150.1829071044922,361200,0.0,0.0
2025-06-16 00:00:00-04:00,150.26239971844478,151.91165806232243,150.14316508190436,150.70948791503906,346200,0.0,0.0
2025-06-17 00:00:00-04:00,149.68614833096728,150.28226087841142,148.16603935275657,148.4839630126953,379700,0.0,0.0
2025-06-18 00:00:00-04:00,148.1560928453656,149.7556865130082,148.1560928453656,148.7323455810547,383200,0.0,0.0
2025-06-20 00:00:00-04:00,149.31853088884125,149.7954391228616,148.02694611213587,149.32847595214844,570500,0.0,0.0
2025-06-23 00:00:00-04:00,148.5237056630681,152.94493793717155,148.5237056630681,152.7958984375,356500,0.0,0.0
2025-06-24 00:00:00-04:00,153.57088413516175,153.57088413516175,152.1898543854923,152.87539672851562,246600,0.0,0.0
2025-06-25 00:00:00-04:00,152.86545791807578,153.53112525522516,151.78250725734722,152.93499755859375,264700,0.0,0.0
2025-06-26 00:00:00-04:00,153.53112514721053,154.574341035503,152.13023567322224,153.4814453125,658200,0.0,0.0
2025-06-27 00:00:00-04:00,153.66028449532695,155.10090869233022,153.23305612343526,154.8127899169922,643100,0.0,0.0
2025-06-30 00:00:00-04:00,155.02143014126432,155.48839330201264,153.6106107560815,155.41883850097656,315500,0.0,0.0
2025-07-01 00:00:00-04:00,155.41885264847184,158.76707978246705,154.95190460537523,157.982177734375,338300,0.0,0.0
2025-07-02 00:00:00-04:00,157.99210676920643,159.4923407456575,157.62448812214086,159.28370666503906,293500,0.0,0.0
2025-07-03 00:00:00-04:00,159.56191078626273,160.3169927980258,158.7869538067758,159.99905395507812,235100,0.0,0.0
2025-07-07 00:00:00-04:00,159.90962585974881,161.32044524603683,159.51221749972524,159.91957092285156,313900,0.0,0.0
2025-07-08 00:00:00-04:00,159.85995374921617,161.529102294315,158.81675296370705,159.0154571533203,342700,0.0,0.0
2025-07-09 00:00:00-04:00,158.8962292224196,158.97571393365354,157.07807140851818,158.69752502441406,252800,0.0,0.0
2025-07-10 00:00:00-04:00,158.16100593891477,159.32344129609237,157.3065643310547,157.3065643310547,361600,0.0,0.0
2025-07-11 00:00:00-04:00,157.5350709161001,157.5350709161001,155.61755364990313,156.87933349609375,292000,0.0,0.0
2025-07-14 00:00:00-04:00,156.12425111054648,157.91261899615117,155.67716292918448,156.54153442382812,276600,0.0,0.0
2025-07-15 00:00:00-04:00,156.72038949096165,156.97870341867736,153.07411383203788,153.1635284423828,254200,0.0,0.0
2025-07-16 00:00:00-04:00,152.92506467781385,154.60414300247731,152.55746119613846,153.97821044921875,261900,0.0,0.0
2025-07-17 00:00:00-04:00,153.73976854986958,155.3989718771158,153.51124435091202,155.02142333984375,397700,0.0,0.0
2025-07-18 00:00:00-04:00,155.83614959991047,156.19382321666367,153.91861696671302,155.3691864013672,243100,0.0,0.0
2025-07-21 00:00:00-04:00,155.40892170141217,155.65730573721422,154.2365563293025,154.4451904296875,205900,0.0,0.0
2025-07-22 00:00:00-04:00,155.10091070494084,158.3299028119182,154.2265941447245,158.14112854003906,449900,0.0,0.0
2025-07-23 00:00:00-04:00,159.0353324921988,160.80382555616052,158.11133602610758,160.61505126953125,450500,0.0,0.0
2025-07-24 00:00:00-04:00,160.36596689139284,163.67370617715738,159.20027152118774,161.22279357910156,431900,0.45,0.0
2025-07-25 00:00:00-04:00,161.4519443159114,162.48809942211037,160.1866270976646,160.39585876464844,296300,0.0,0.0
2025-07-28 00:00:00-04:00,160.60507716525916,161.3821973048954,157.5763031854557,158.1143035888672,308500,0.0,0.0
2025-07-29 00:00:00-04:00,158.46301837287766,159.01099160157025,156.63977028603261,158.23387145996094,388200,0.0,0.0
2025-07-30 00:00:00-04:00,158.2139411794794,158.34345106823227,154.34825571028387,156.2113494873047,580700,0.0,0.0
2025-07-31 00:00:00-04:00,155.20507720090802,156.76929025695372,154.60728547959022,156.56005859375,679700,0.0,0.0
2025-08-01 00:00:00-04:00,156.3906864594005,157.5364361790711,140.5692884515745,140.82833862304688,1012300,0.0,0.0
2025-08-04 00:00:00-04:00,142.59179613946068,142.59179613946068,136.57409406621255,138.6165313720703,839000,0.0,0.0
2025-08-05 00:00:00-04:00,138.82574228984998,140.549368424906,137.1818379302022,139.70249938964844,540800,0.0,0.0
2025-08-06 00:00:00-04:00,139.79217373051944,140.2405099336514,137.04236517583132,138.02870178222656,515300,0.0,0.0
2025-08-07 00:00:00-04:00,139.28405592850498,140.9678212320078,138.3973411784471,139.9715118408203,564000,0.0,0.0
2025-08-08 00:00:00-04:00,140.1707689136227,141.5257502766756,140.06117427387304,140.2305450439453,428700,0.0,0.0
2025-08-11 00:00:00-04:00,140.80840868971592,141.09733172532074,138.68626481251795,139.35379028320312,349500,0.0,0.0
2025-08-12 00:00:00-04:00,139.7024996187182,140.56928389677475,138.71614787982762,138.96522521972656,286100,0.0,0.0
2025-08-13 00:00:00-04:00,139.17446660105043,140.91800810219684,138.73608801979466,140.9080352783203,729900,0.0,0.0
2025-08-14 00:00:00-04:00,139.67261570690306,139.67261570690306,135.9364554973346,137.82943725585938,875800,0.0,0.0
2025-08-15 00:00:00-04:00,137.84936634538602,138.43718523065303,137.36116927657673,138.20803833007812,770500,0.0,0.0
2025-08-18 00:00:00-04:00,138.37741292257056,139.0549112245806,136.84310312496342,137.381103515625,529500,0.0,0.0
2025-08-19 00:00:00-04:00,137.75970856476783,140.00140477286192,137.75970856476783,139.0748291015625,333100,0.0,0.0
2025-08-20 00:00:00-04:00,139.393648840335,140.72869975936982,138.74603862261242,140.65895080566406,519200,0.0,0.0
2025-08-21 00:00:00-04:00,140.1109987995753,141.3763008190009,139.72243873331917,140.12095642089844,270400,0.0,0.0
2025-08-22 00:00:00-04:00,140.73866449964885,142.801032315336,140.66893074489022,140.9080352783203,356500,0.0,0.0
2025-08-25 00:00:00-04:00,140.44973703337416,141.08737443990944,138.4471606165544,139.04493713378906,245800,0.0,0.0
2025-08-26 00:00:00-04:00,138.55675954638778,139.64273317507582,137.50065878188727,139.19439697265625,442900,0.0,0.0
2025-08-27 00:00:00-04:00,138.57667015211817,140.05121900303388,138.51689402079253,138.92538452148438,729100,0.0,0.0
2025-08-28 00:00:00-04:00,139.65268569461995,139.65268569461995,136.89290442125153,138.37741088867188,320800,0.0,0.0
2025-08-29 00:00:00-04:00,138.65637494364685,139.35378847092917,137.83940915525176,138.75601196289062,370700,0.0,0.0
2025-09-02 00:00:00-04:00,136.91283746702226,138.0187415215873,135.6674507029839,135.9065704345703,310600,0.0,0.0
2025-09-03 00:00:00-04:00,135.57778924348088,135.6774110651314,133.94384238415293,134.72096252441406,382300,0.0,0.0
2025-09-04 00:00:00-04:00,135.8467917014058,137.96892036901434,134.5416136276031,137.94900512695312,401800,0.0,0.0
2025-09-05 00:00:00-04:00,138.5069313024626,140.30029118860833,137.1220619019756,138.1083984375,440800,0.0,0.0
2025-09-08 00:00:00-04:00,138.0785196018611,139.48331954010914,137.1718743762563,137.7895965576172,616100,0.0,0.0
2025-09-09 00:00:00-04:00,137.74973055841448,138.9652292283821,134.60140444515423,136.54420471191406,637100,0.0,0.0
2025-09-10 00:00:00-04:00,135.6276095966407,136.95270298263142,134.3523347233892,135.74716186523438,685100,0.0,0.0
2025-09-11 00:00:00-04:00,136.2453102876287,137.76966245161407,135.3685531518816,136.59402465820312,477500,0.0,0.0
2025-09-12 00:00:00-04:00,136.11578066498313,136.54420159748256,134.7209536341175,134.7309112548828,261300,0.0,0.0
2025-09-15 00:00:00-04:00,135.46818707582165,135.66744591053393,134.13313616052721,134.35232543945312,298000,0.0,0.0
2025-09-16 00:00:00-04:00,134.29253521558843,134.92021499246542,133.6050945105264,134.71099853515625,474800,0.0,0.0
2025-09-17 00:00:00-04:00,134.9202234437148,136.56414315220525,133.69476708100424,134.15306091308594,377400,0.0,0.0
2025-09-18 00:00:00-04:00,134.40213401806383,135.00988336938318,133.57521058169633,134.0036163330078,254800,0.0,0.0
2025-09-19 00:00:00-04:00,134.16302167221522,134.6014002217238,132.8478860236895,133.94383239746094,877200,0.0,0.0
2025-09-22 00:00:00-04:00,133.62500584924183,134.44198681766053,132.18036032475496,132.2301788330078,402100,0.0,0.0
2025-09-23 00:00:00-04:00,132.51911249007324,133.45564579146554,131.48295736665602,131.53277587890625,319700,0.0,0.0
2025-09-24 00:00:00-04:00,131.51283362791114,132.8179964383377,130.8552658111778,131.01467895507812,353300,0.0,0.0
2025-09-25 00:00:00-04:00,131.01468707936854,132.0309269316582,129.78923076490094,130.3372039794922,388700,0.0,0.0
2025-09-26 00:00:00-04:00,130.84530934560345,131.9412405140255,130.47667974924482,131.8017578125,274400,0.0,0.0
2025-09-29 00:00:00-04:00,131.9113549736489,132.1903203820378,130.8751999142723,131.78184509277344,540600,0.0,0.0
2025-09-30 00:00:00-04:00,131.22391724742639,133.2663393474204,131.22391724742639,133.16671752929688,310400,0.0,0.0
2025-10-01 00:00:00-04:00,132.83793505008853,133.864132523027,131.8216951983283,133.6449432373047,310100,0.0,0.0
2025-10-02 00:00:00-04:00,133.16671601295707,133.89401760712443,132.46930248413395,132.6884765625,398500,0.0,0.0
2025-10-03 00:00:00-04:00,131.98110050874084,133.08700449280963,131.94123962144647,132.72833251953125,402000,0.0,0.0
2025-10-06 00:00:00-04:00,132.3995623608993,132.70841585837292,130.9250286298273,131.39329528808594,447100,0.0,0.0
2025-10-07 00:00:00-04:00,131.62244210672506,132.02095980591378,129.33092733020055,130.10804748535156,438800,0.0,0.0
2025-10-08 00:00:00-04:00,130.6958618827827,131.5228005222907,129.77925904443626,131.12428283691406,361300,0.0,0.0
2025-10-09 00:00:00-04:00,131.2139490956711,132.34974123954802,129.71948494833435,130.1279754638672,554200,0.0,0.0
2025-10-10 00:00:00-04:00,130.456750166944,131.5227932779699,129.41062229735738,130.44677734375,426000,0.0,0.0
2025-10-13 00:00:00-04:00,130.50657288985758,131.8615542727262,129.67963426919383,129.73941040039062,311400,0.0,0.0
2025-10-14 00:00:00-04:00,129.56007316445456,130.57631305211217,128.56376372233257,129.3209686279297,337400,0.0,0.0
2025-10-15 00:00:00-04:00,129.3209660189343,129.90878492933314,127.38812330781582,127.62724304199219,438300,0.0,0.0
2025-10-16 00:00:00-04:00,127.96597514472943,129.02206062166923,127.37814867651251,128.68331909179688,352700,0.0,0.0
2025-10-17 00:00:00-04:00,128.6833272427598,129.61986052200092,128.3744737575792,128.86265563964844,339700,0.0,0.0
2025-10-20 00:00:00-04:00,129.13165784992026,129.60988209007235,127.54752960271524,129.5202178955078,240500,0.0,0.0
2025-10-21 00:00:00-04:00,130.12796519186372,131.28368768983484,128.64345878313492,130.08811950683594,311600,0.0,0.0
2025-10-22 00:00:00-04:00,130.16782074524266,131.62243919986034,129.5002952524821,129.5800018310547,357500,0.0,0.0
2025-10-23 00:00:00-04:00,129.74000549316406,131.52999877929688,129.66000366210938,130.77000427246094,378600,0.48,0.0
2025-10-24 00:00:00-04:00,130.75,130.88999938964844,128.5399932861328,128.8800048828125,489300,0.0,0.0
2025-10-27 00:00:00-04:00,129.13999938964844,129.89999389648438,128.4499969482422,128.77999877929688,521700,0.0,0.0
2025-10-28 00:00:00-04:00,128.75,129.11000061035156,127.47000122070312,128.10000610351562,413500,0.0,0.0
2025-10-29 00:00:00-04:00,127.27999877929688,127.5,123.41999816894531,124.30999755859375,651100,0.0,0.0
2025-10-30 00:00:00-04:00,124.04000091552734,125.5199966430664,123.04000091552734,124.36000061035156,702600,0.0,0.0
2025-10-31 00:00:00-04:00,115.29000091552734,118.0999984741211,103.2300033569336,116.01000213623047,2758200,0.0,0.0
2025-11-03 00:00:00-05:00,116.08999633789062,116.08999633789062,108.29000091552734,113.12000274658203,1661000,0.0,0.0
2025-11-04 00:00:00-05:00,114.36000061035156,116.0,112.52999877929688,114.18000030517578,1029100,0.0,0.0
2025-11-05 00:00:00-05:00,114.33000183105469,116.04000091552734,112.7699966430664,115.56999969482422,896900,0.0,0.0
2025-11-06 00:00:00-05:00,115.0199966430664,116.95999908447266,113.80000305175781,116.1500015258789,880300,0.0,0.0
2025-11-07 00:00:00-05:00,116.2300033569336,116.91999816894531,114.69000244140625,116.22000122070312,697200,0.0,0.0
2025-11-10 00:00:00-05:00,115.98999786376953,116.7699966430664,114.0,116.37999725341797,514000,0.0,0.0
2025-11-11 00:00:00-05:00,116.95999908447266,119.51000213623047,116.95999908447266,118.2699966430664,484800,0.0,0.0
2025-11-12 00:00:00-05:00,118.33999633789062,119.66999816894531,117.91000366210938,118.16000366210938,547500,0.0,0.0
2025-11-13 00:00:00-05:00,118.30000305175781,121.87999725341797,118.30000305175781,120.19999694824219,679400,0.0,0.0
2025-11-14 00:00:00-05:00,119.7699966430664,120.69000244140625,118.38999938964844,118.61000061035156,521200,0.0,0.0
2025-11-17 00:00:00-05:00,118.48999786376953,119.48999786376953,117.56999969482422,119.33999633789062,820200,0.0,0.0
2025-11-18 00:00:00-05:00,119.66000366210938,120.11000061035156,118.05999755859375,119.30999755859375,817400,0.0,0.0
2025-11-19 00:00:00-05:00,119.51000213623047,119.51000213623047,117.70999908447266,118.0,598900,0.0,0.0
2025-11-20 00:00:00-05:00,118.0,119.61000061035156,117.37000274658203,118.58000183105469,507400,0.0,0.0
2025-11-21 00:00:00-05:00,118.12999725341797,122.23999786376953,118.12999725341797,121.5199966430664,509100,0.0,0.0
2025-11-24 00:00:00-05:00,120.8499984741211,122.4000015258789,120.44000244140625,121.47000122070312,740000,0.0,0.0
2025-11-25 00:00:00-05:00,122.41000366210938,124.08000183105469,122.41000366210938,123.44000244140625,543600,0.0,0.0
2025-11-26 00:00:00-05:00,123.0199966430664,124.5199966430664,123.0199966430664,123.80999755859375,538000,0.0,0.0
2025-11-28 00:00:00-05:00,123.62999725341797,126.08000183105469,123.62999725341797,124.75,315700,0.0,0.0
2025-12-01 00:00:00-05:00,124.87999725341797,124.95999908447266,123.02999877929688,123.27999877929688,536800,0.0,0.0
2025-12-02 00:00:00-05:00,123.7699966430664,123.86000061035156,120.80000305175781,121.5999984741211,325400,0.0,0.0
2025-12-03 00:00:00-05:00,121.44999694824219,124.26000213623047,121.41000366210938,122.05999755859375,543100,0.0,0.0
2025-12-04 00:00:00-05:00,122.19999694824219,124.08000183105469,121.93000030517578,122.0199966430664,708000,0.0,0.0
2025-12-05 00:00:00-05:00,121.98999786376953,123.51000213623047,120.62000274658203,121.91000366210938,537000,0.0,0.0
2025-12-08 00:00:00-05:00,120.91999816894531,122.0999984741211,119.30000305175781,120.06999969482422,496600,0.0,0.0
2025-12-09 00:00:00-05:00,119.5999984741211,119.8499984741211,115.36000061035156,115.72000122070312,640300,0.0,0.0
2025-12-10 00:00:00-05:00,116.16999816894531,117.80000305175781,115.12999725341797,117.16999816894531,734700,0.0,0.0
2025-12-11 00:00:00-05:00,117.95999908447266,118.66999816894531,117.16000366210938,118.01000213623047,389700,0.0,0.0
2025-12-12 00:00:00-05:00,118.5199966430664,121.63999938964844,117.6500015258789,121.47000122070312,656400,0.0,0.0
2025-12-15 00:00:00-05:00,121.4800033569336,122.45999908447266,120.4800033569336,122.33000183105469,588600,0.0,0.0
2025-12-16 00:00:00-05:00,122.66999816894531,123.8499984741211,119.5199966430664,122.83000183105469,644800,0.0,0.0
2025-12-17 00:00:00-05:00,122.11000061035156,124.5999984741211,120.08000183105469,123.62999725341797,567300,0.0,0.0
2025-12-18 00:00:00-05:00,123.66999816894531,124.12000274658203,122.02999877929688,122.62000274658203,457100,0.0,0.0
2025-12-19 00:00:00-05:00,123.33999633789062,124.33000183105469,121.26000213623047,121.38999938964844,1300400,0.0,0.0
2025-12-22 00:00:00-05:00,121.38999938964844,123.69999694824219,121.06999969482422,122.73999786376953,527800,0.0,0.0
2025-12-23 00:00:00-05:00,122.87000274658203,123.02999877929688,121.31999969482422,122.19000244140625,311700,0.0,0.0
2025-12-24 00:00:00-05:00,122.52999877929688,123.16999816894531,121.76000213623047,122.75,198000,0.0,0.0
2025-12-26 00:00:00-05:00,122.37000274658203,123.4800033569336,121.72000122070312,123.25,306000,0.0,0.0
2025-12-29 00:00:00-05:00,123.29000091552734,124.30999755859375,122.31999969482422,123.20999908447266,400200,0.0,0.0
2025-12-30 00:00:00-05:00,122.80000305175781,124.30000305175781,122.41999816894531,122.73999786376953,289800,0.0,0.0
2025-12-31 00:00:00-05:00,121.5199966430664,123.33000183105469,121.3499984741211,121.95999908447266,314300,0.0,0.0
2026-01-02 00:00:00-05:00,121.73999786376953,123.0,120.77999877929688,122.54000091552734,295100,0.0,0.0
2026-01-05 00:00:00-05:00,121.76000213623047,124.58000183105469,121.76000213623047,123.0,435700,0.0,0.0
2026-01-06 00:00:00-05:00,122.22000122070312,122.8499984741211,120.11000061035156,120.55999755859375,777200,0.0,0.0
2026-01-07 00:00:00-05:00,120.66999816894531,121.94999694824219,117.61000061035156,120.44000244140625,478500,0.0,0.0
2026-01-08 00:00:00-05:00,119.91999816894531,123.37000274658203,119.5199966430664,122.44000244140625,330000,0.0,0.0
2026-01-09 00:00:00-05:00,122.08000183105469,124.97000122070312,121.45999908447266,123.8499984741211,429100,0.0,0.0
2026-01-12 00:00:00-05:00,124.0,125.30000305175781,122.9800033569336,125.12999725341797,477300,0.0,0.0
2026-01-13 00:00:00-05:00,125.05000305175781,125.44000244140625,122.54000091552734,123.5,351900,0.0,0.0
2026-01-14 00:00:00-05:00,124.11000061035156,127.16000366210938,124.11000061035156,126.8499984741211,611700,0.0,0.0
2026-01-15 00:00:00-05:00,127.13999938964844,127.22000122070312,124.5199966430664,125.11000061035156,381000,0.0,0.0
2026-01-16 00:00:00-05:00,124.0,125.19999694824219,123.23999786376953,124.70999908447266,363400,0.0,0.0
2026-01-20 00:00:00-05:00,124.9000015258789,125.52999877929688,123.44000244140625,123.81999969482422,275100,0.0,0.0
2026-01-21 00:00:00-05:00,124.30999755859375,125.62000274658203,123.9000015258789,125.01000213623047,421000,0.0,0.0
2026-01-22 00:00:00-05:00,125.05000305175781,126.41000366210938,124.05999755859375,124.47000122070312,369700,0.0,0.0
2026-01-23 00:00:00-05:00,124.33999633789062,126.27999877929688,123.87000274658203,126.0,429500,0.0,0.0
2026-01-26 00:00:00-05:00,126.41999816894531,126.98999786376953,125.0999984741211,126.3499984741211,315400,0.0,0.0
2026-01-27 00:00:00-05:00,124.94999694824219,126.30000305175781,124.16999816894531,124.73999786376953,303100,0.0,0.0
2026-01-28 00:00:00-05:00,124.19999694824219,125.06999969482422,123.25,123.69999694824219,347800,0.0,0.0
