Date,Open,High,Low,Close,Volume,Dividends,Stock Splits
2024-01-29 00:00:00-05:00,127.91699396059559,129.4201706663894,127.37038424939784,129.0883026123047,187800,0.0,0.0
2024-01-30 00:00:00-05:00,128.87356095519164,129.9082171791013,128.48312970262114,129.0883026123047,228400,0.0,0.0
2024-01-31 00:00:00-05:00,129.6072404814495,129.99890086291595,126.46424622437948,127.16921997070312,537500,0.41,0.0
2024-02-01 00:00:00-05:00,127.73712469360406,128.37355231227963,126.90485940119733,127.77628326416016,298800,0.0,0.0
2024-02-02 00:00:00-05:00,127.24755089870118,127.9818972994685,126.00405347678009,127.38462829589844,344800,0.0,0.0
2024-02-05 00:00:00-05:00,126.43486927198613,128.70643964612842,125.3774086883919,127.92313385009766,319500,0.0,0.0
2024-02-06 00:00:00-05:00,127.75666975689369,128.657466094229,126.60130541345724,128.3931121826172,369700,0.0,0.0
2024-02-07 00:00:00-05:00,128.66728901474832,129.65620349228317,126.66985836466682,129.0491485595703,393000,0.0,0.0
2024-02-08 00:00:00-05:00,128.89246455848166,132.02567251313766,128.7945457403961,129.36244201660156,620700,0.0,0.0
2024-02-09 00:00:00-05:00,129.35268571501237,136.3045050613122,128.7652025526736,136.05972290039062,650900,0.0,0.0
2024-02-12 00:00:00-05:00,136.25552137822632,137.53817728260378,134.63995043963598,134.7378692626953,491300,0.0,0.0
2024-02-13 00:00:00-05:00,133.8370732258997,134.46371485035667,132.1627569650691,133.09292602539062,275900,0.0,0.0
2024-02-14 00:00:00-05:00,133.41605726205856,134.59102353082952,132.34881067689776,134.30706787109375,335000,0.0,0.0
2024-02-15 00:00:00-05:00,134.30704491833603,134.9336865157745,131.76131996512967,132.22149658203125,471400,0.0,0.0
2024-02-16 00:00:00-05:00,132.54460915952922,135.1197216796875,132.22149498876186,134.63015747070312,453900,0.0,0.0
2024-02-20 00:00:00-05:00,134.27767922539462,137.21506466705296,134.0916424236392,136.7744598388672,373000,0.0,0.0
2024-02-21 00:00:00-05:00,136.17719125904176,137.18569240168102,136.08907328121464,137.07798767089844,276300,0.0,0.0
2024-02-22 00:00:00-05:00,137.5381901645457,139.4474878705109,137.1465447162561,138.51731872558594,295700,0.0,0.0
2024-02-23 00:00:00-05:00,139.0068912476413,139.08522333000667,137.66548982038745,138.4096221923828,190300,0.0,0.0
2024-02-26 00:00:00-05:00,138.54669929229192,139.09500892730892,137.86131224852068,138.9579315185547,199200,0.0,0.0
2024-02-27 00:00:00-05:00,138.9579283971405,139.21249645330374,136.8821805568274,137.38153076171875,244600,0.0,0.0
2024-02-28 00:00:00-05:00,136.73528395824644,138.2921095699257,136.42197061887495,137.47943115234375,189600,0.0,0.0
2024-02-29 00:00:00-05:00,137.69486193698094,138.6739905521845,136.91155605675468,137.52841186523438,250600,0.0,0.0
2024-03-01 00:00:00-05:00,136.96049190925382,137.85148744113758,136.64716363494983,137.36192321777344,151400,0.0,0.0
2024-03-04 00:00:00-05:00,137.75360334088958,139.15375004940918,137.62631184363633,138.99710083007812,260300,0.0,0.0
2024-03-05 00:00:00-05:00,139.30061277790898,140.2209959378747,138.78167587968406,139.54539489746094,190200,0.0,0.0
2024-03-06 00:00:00-05:00,139.94686149321564,140.64204946170744,139.50625655502836,140.08395385742188,184000,0.0,0.0
2024-03-07 00:00:00-05:00,141.4840876087657,142.11072933689425,140.83785912466888,141.63095092773438,250100,0.0,0.0
2024-03-08 00:00:00-05:00,141.689698773596,142.04218564853537,139.98600972133647,140.10350036621094,185200,0.0,0.0
2024-03-11 00:00:00-04:00,139.80976295804984,140.38746017321108,139.01667120100592,139.7608184814453,226700,0.0,0.0
2024-03-12 00:00:00-04:00,139.81955789559433,139.86851731044584,138.52710105703028,139.4376983642578,242200,0.0,0.0
2024-03-13 00:00:00-04:00,140.01536839770395,140.01536839770395,137.98856533416247,138.21377563476562,336800,0.0,0.0
2024-03-14 00:00:00-04:00,138.40961949274333,138.6641875502277,137.43049089274948,137.98858642578125,235200,0.0,0.0
2024-03-15 00:00:00-04:00,137.11717405655844,139.4377191923658,136.8234474042064,138.05714416503906,599500,0.0,0.0
2024-03-18 00:00:00-04:00,137.98856680896114,138.3508544988705,136.0303098873644,136.35342407226562,299700,0.0,0.0
2024-03-19 00:00:00-04:00,135.98139517809074,137.39134286067835,135.98139517809074,136.59823608398438,253000,0.0,0.0
2024-03-20 00:00:00-04:00,136.71571440452314,137.14653332605133,136.23593607094585,137.04861450195312,220000,0.0,0.0
2024-03-21 00:00:00-04:00,137.38152014458856,138.64460430098922,136.39260571866635,138.19419860839844,255800,0.0,0.0
2024-03-22 00:00:00-04:00,139.04604361018582,139.4768625738005,138.10608854440505,138.6348114013672,276000,0.0,0.0
2024-03-25 00:00:00-04:00,138.25295096329157,141.04347336124076,138.22357830144506,139.97622680664062,316300,0.0,0.0
2024-03-26 00:00:00-04:00,139.8489241387062,141.29803012185278,139.64330058189233,140.21119689941406,314200,0.0,0.0
2024-03-27 00:00:00-04:00,140.6713892220077,142.12049521274304,140.6713892220077,141.64073181152344,218200,0.0,0.0
2024-03-28 00:00:00-04:00,141.79739229061175,142.3163291848301,140.65179883247643,140.8867950439453,247800,0.0,0.0
2024-04-01 00:00:00-04:00,140.78889862820054,140.78889862820054,139.15375561481258,139.32020568847656,204400,0.0,0.0
2024-04-02 00:00:00-04:00,138.87959193219197,138.87959193219197,137.4598585024541,137.69485473632812,202600,0.0,0.0
2024-04-03 00:00:00-04:00,137.73399742321058,138.24314840106996,136.95069167426877,137.9396209716797,258700,0.0,0.0
2024-04-04 00:00:00-04:00,138.8697901989138,139.77058658229822,138.02773913222396,138.7914581298828,403600,0.0,0.0
2024-04-05 00:00:00-04:00,138.42917986423274,139.78036691528044,138.0081468775171,138.77186584472656,288300,0.0,0.0
2024-04-08 00:00:00-04:00,138.7131395022946,139.40832734461233,137.45985615698365,137.5773468017578,312500,0.0,0.0
2024-04-09 00:00:00-04:00,137.48923550477178,138.15505071827695,136.45136158461523,137.38153076171875,242600,0.0,0.0
2024-04-10 00:00:00-04:00,136.0792616368699,137.2933862384149,135.56032477708936,136.49049377441406,200700,0.0,0.0
2024-04-11 00:00:00-04:00,136.3534270559702,137.11714607687958,135.56033537581934,136.2261505126953,265300,0.0,0.0
2024-04-12 00:00:00-04:00,135.2861508780235,136.04986973116849,133.1222857742166,134.33639526367188,299200,0.0,0.0
2024-04-15 00:00:00-04:00,135.7169980167573,136.8919491943604,134.95327900429953,135.3155517578125,319600,0.0,0.0
2024-04-16 00:00:00-04:00,134.9141124076051,136.48072401817615,134.49309431469953,135.69741821289062,281700,0.0,0.0
2024-04-17 00:00:00-04:00,135.9813755097354,136.56884366563017,135.46243858221953,135.51138305664062,565400,0.0,0.0
2024-04-18 00:00:00-04:00,135.50159973355935,136.5296877013735,135.33514967253282,136.20657348632812,246600,0.0,0.0
2024-04-19 00:00:00-04:00,136.15760790834543,136.99965902269156,135.87366721481357,136.4317626953125,276600,0.0,0.0
2024-04-22 00:00:00-04:00,136.6373785536885,138.20397511372053,136.34363702983424,137.3913116455078,298800,0.0,0.0
2024-04-23 00:00:00-04:00,136.8527948444517,138.2137828639888,136.60801271906504,137.224853515625,417200,0.0,0.0
2024-04-24 00:00:00-04:00,137.43107255657495,138.3639707514258,137.12665456517468,137.489990234375,559200,0.41,0.0
2024-04-25 00:00:00-04:00,137.32305979581383,138.70768524114288,136.41962038738555,137.6569366455078,694400,0.0,0.0
2024-04-26 00:00:00-04:00,139.4441957677168,145.8370193484069,139.34598963619146,140.75025939941406,489500,0.0,0.0
2024-04-29 00:00:00-04:00,142.29197344794224,145.355827500917,141.77151399033158,143.74534606933594,676700,0.0,0.0
2024-04-30 00:00:00-04:00,143.11687921960655,143.47040029775064,141.46710919355039,141.78135681152344,585100,0.0,0.0
2024-05-01 00:00:00-04:00,142.38038675695137,144.56043103882786,141.97776259134534,142.76336669921875,359600,0.0,0.0
2024-05-02 00:00:00-04:00,143.13651631910253,144.08905886019195,142.67497446994983,143.29364013671875,356500,0.0,0.0
2024-05-03 00:00:00-04:00,144.46222120377251,144.4818654266077,142.23307391275765,144.16761779785156,303300,0.0,0.0
2024-05-06 00:00:00-04:00,145.10050718187043,146.39675609462375,144.51131539037863,146.3574676513672,260200,0.0,0.0
2024-05-07 00:00:00-04:00,145.65042707406778,147.6733471749605,145.65042707406778,147.0252227783203,392900,0.0,0.0
2024-05-08 00:00:00-04:00,147.02523988257218,148.1545354150032,146.7895541697891,148.0759735107422,223500,0.0,0.0
2024-05-09 00:00:00-04:00,148.28219977529417,148.99905654553297,145.9548614346765,146.39675903320312,299100,0.0,0.0
2024-05-10 00:00:00-04:00,146.2690950329477,146.31819809625316,145.4245732902073,145.8173828125,186300,0.0,0.0
2024-05-13 00:00:00-04:00,145.8566510618431,146.7895492947144,144.2167106982556,145.20852661132812,167500,0.0,0.0
2024-05-14 00:00:00-04:00,145.63080085717445,145.6406154762219,144.8157379516988,145.2379913330078,137600,0.0,0.0
2024-05-15 00:00:00-04:00,145.29691906696215,145.6700693720631,144.12833512148518,144.629150390625,211100,0.0,0.0
2024-05-16 00:00:00-04:00,144.71753727300873,145.2379968009917,143.79445358665347,144.8844757080078,235500,0.0,0.0
2024-05-17 00:00:00-04:00,145.18889876375104,145.50313138921572,144.4818566262671,145.0121307373047,169500,0.0,0.0
2024-05-20 00:00:00-04:00,144.93355031144768,145.73879847005816,144.39344666654415,145.50311279296875,163400,0.0,0.0
2024-05-21 00:00:00-04:00,145.2772782532513,146.00394964307074,144.44257113428725,145.9155731201172,280400,0.0,0.0
2024-05-22 00:00:00-04:00,145.40492664815366,146.15124217495384,144.8157199273145,146.11195373535156,283300,0.0,0.0
2024-05-23 00:00:00-04:00,145.98433249767737,146.26910631216705,144.90412495826354,145.06124877929688,171700,0.0,0.0
2024-05-24 00:00:00-04:00,145.807540432456,146.15124686132475,144.7077038347157,145.424560546875,162300,0.0,0.0
2024-05-28 00:00:00-04:00,144.96302199495298,145.12014579360385,143.19543170465636,144.0694122314453,318400,0.0,0.0
2024-05-29 00:00:00-04:00,143.02849673288384,144.05960119118265,141.90901574551282,142.2330780029297,229700,0.0,0.0
2024-05-30 00:00:00-04:00,142.51785812114915,144.33455159502492,142.39019315304907,143.50967407226562,328100,0.0,0.0
2024-05-31 00:00:00-04:00,143.46057587927072,145.1692636494111,143.29363744524605,145.0317840576172,358900,0.0,0.0
2024-06-03 00:00:00-04:00,145.82717820341358,145.82717820341358,143.64713434063063,145.49330139160156,266200,0.0,0.0
2024-06-04 00:00:00-04:00,144.99250745907355,145.7191939231622,144.05960908252047,145.52279663085938,287900,0.0,0.0
2024-06-05 00:00:00-04:00,145.0612321328532,145.5325885577106,144.43275190499315,145.25762939453125,229200,0.0,0.0
2024-06-06 00:00:00-04:00,145.34600693630378,145.34600693630378,142.7829829453908,143.33291625976562,197600,0.0,0.0
2024-06-07 00:00:00-04:00,143.14632406296613,143.69624235649312,142.83207647572232,142.93028259277344,179100,0.0,0.0
2024-06-10 00:00:00-04:00,142.22325833755693,143.18561547188932,141.39838079384342,142.96957397460938,125800,0.0,0.0
2024-06-11 00:00:00-04:00,142.30180267664153,143.11686550045732,141.7518843820549,142.8811798095703,147700,0.0,0.0
2024-06-12 00:00:00-04:00,143.60788538736784,143.6766176913387,141.47694421784456,143.20526123046875,221300,0.0,0.0
2024-06-13 00:00:00-04:00,143.26417891505852,143.89265919093566,142.40984252020334,143.20526123046875,232400,0.0,0.0
2024-06-14 00:00:00-04:00,142.47856067350722,142.76334943294216,141.09393528655866,142.14468383789062,141500,0.0,0.0
2024-06-17 00:00:00-04:00,142.262529988864,144.03995002502072,141.96794157282253,143.69625854492188,303800,0.0,0.0
2024-06-18 00:00:00-04:00,143.8435473023559,145.03177547725338,143.83373268357687,144.04977416992188,219900,0.0,0.0
2024-06-20 00:00:00-04:00,144.02034570869736,144.87468223135895,143.0481588150744,143.18563842773438,199900,0.0,0.0
2024-06-21 00:00:00-04:00,143.2445521920997,144.49169827683474,142.6946337565435,144.20692443847656,444100,0.0,0.0
2024-06-24 00:00:00-04:00,144.57023956530952,145.56205553190514,144.03013582740047,144.07923889160156,182900,0.0,0.0
2024-06-25 00:00:00-04:00,144.1479869383669,144.15781654277157,141.89921020019392,142.2527313232422,194500,0.0,0.0
2024-06-26 00:00:00-04:00,141.65368719367086,142.18396130140425,140.38691211266018,141.1234130859375,192400,0.0,0.0
2024-06-27 00:00:00-04:00,141.280517578125,141.29034718065736,139.70932454041687,141.280517578125,377300,0.0,0.0
2024-06-28 00:00:00-04:00,141.1921493835531,141.72243849045483,137.5685620949453,138.27560424804688,435100,0.0,0.0
2024-07-01 00:00:00-04:00,138.8353271442965,138.9335182686394,135.89913831652868,136.0464324951172,306400,0.0,0.0
2024-07-02 00:00:00-04:00,135.9875450145778,137.97119197013797,135.2805028320841,137.87298583984375,259400,0.0,0.0
2024-07-03 00:00:00-04:00,138.34436103762317,138.85499097338203,138.03994300326443,138.67823791503906,143300,0.0,0.0
2024-07-05 00:00:00-04:00,138.45235939453343,138.8942569530628,137.2150282496716,138.3639678955078,207000,0.0,0.0
2024-07-08 00:00:00-04:00,139.10049229192228,139.93519947543663,138.953198075609,138.9630126953125,249300,0.0,0.0
2024-07-09 00:00:00-04:00,138.32470321150217,138.72732733922592,137.23468117312245,137.5194549560547,238400,0.0,0.0
2024-07-10 00:00:00-04:00,138.21670456794968,139.0808706418825,138.0399514987287,138.74697875976562,142000,0.0,0.0
2024-07-11 00:00:00-04:00,138.6585665279022,140.72077504282205,138.216668984462,139.5325469970703,244500,0.0,0.0
2024-07-12 00:00:00-04:00,140.8288097476232,142.87137424563738,140.8288097476232,141.98756408691406,263900,0.0,0.0
2024-07-15 00:00:00-04:00,142.1544979306604,143.0677669001762,140.5636606740105,140.8484344482422,319900,0.0,0.0
2024-07-16 00:00:00-04:00,141.260886863639,142.68478568996832,141.260886863639,141.95809936523438,178800,0.0,0.0
2024-07-17 00:00:00-04:00,141.74208637124957,143.146356243191,141.74208637124957,142.2527313232422,242300,0.0,0.0
2024-07-18 00:00:00-04:00,142.0072153112255,144.59969826651894,141.99740069205538,143.64715576171875,434200,0.0,0.0
2024-07-19 00:00:00-04:00,143.95157307665585,143.95157307665585,142.056317679659,143.3132781982422,251200,0.0,0.0
2024-07-22 00:00:00-04:00,143.36237293963097,144.90410716476552,142.63568659469945,144.540771484375,235700,0.0,0.0
2024-07-23 00:00:00-04:00,145.20853274870527,145.837013004333,143.04813280649452,143.41146850585938,234500,0.0,0.0
2024-07-24 00:00:00-04:00,143.44093989355278,143.99085823486217,141.30998384475248,141.54566955566406,250600,0.0,0.0
2024-07-25 00:00:00-04:00,140.6984933060323,141.90028796670512,139.1125193706248,139.3784942626953,558100,0.45,0.0
2024-07-26 00:00:00-04:00,140.99402464865875,149.03223862770872,140.2256660700075,144.47134399414062,562800,0.0,0.0
2024-07-29 00:00:00-04:00,144.39253513535562,146.13612499010006,143.00357347087996,145.59432983398438,390900,0.0,0.0
2024-07-30 00:00:00-04:00,145.18060039162737,145.69282942338756,143.23999820328214,143.57492065429688,411000,0.0,0.0
2024-07-31 00:00:00-04:00,144.3137274810093,146.62866359296467,143.23999755294346,144.78656005859375,280600,0.0,0.0
2024-08-01 00:00:00-04:00,144.68805994790043,147.3083523550759,143.25968681226828,144.8358154296875,335300,0.0,0.0
2024-08-02 00:00:00-04:00,144.3925563568582,144.80628680113196,141.6047872630117,143.51583862304688,213500,0.0,0.0
2024-08-05 00:00:00-04:00,141.28952700802856,141.28952700802856,137.39847751350723,138.58056640625,448500,0.0,0.0
2024-08-06 00:00:00-04:00,139.22088397719236,143.9098433940362,139.00416591290647,142.76715087890625,476000,0.0,0.0
2024-08-07 00:00:00-04:00,143.8310548599633,145.06240083173878,141.32896645899015,141.45703125,353600,0.0,0.0
2024-08-08 00:00:00-04:00,142.30419618285174,143.97882367828078,142.30419618285174,143.3877716064453,268600,0.0,0.0
2024-08-09 00:00:00-04:00,143.24000692951807,143.24000692951807,141.32895572154177,141.80178833007812,263200,0.0,0.0
2024-08-12 00:00:00-04:00,141.82150185638116,142.02835955787225,140.63941275462523,141.15164184570312,221100,0.0,0.0
2024-08-13 00:00:00-04:00,141.36834859273043,143.1316442630569,140.9644785785287,142.21551513671875,212000,0.0,0.0
2024-08-14 00:00:00-04:00,141.97911142530356,142.64895637508786,141.3486629303569,141.75253295898438,115700,0.0,0.0
2024-08-15 00:00:00-04:00,142.8361176308303,145.14119343893137,142.8361176308303,144.8161163330078,277500,0.0,0.0
2024-08-16 00:00:00-04:00,143.92955914675773,144.64866093859132,143.43702079022663,144.53045654296875,250600,0.0,0.0
2024-08-19 00:00:00-04:00,144.1364243221197,145.52537099118265,143.742384638883,144.77671813964844,191200,0.0,0.0
2024-08-20 00:00:00-04:00,144.7865625493503,146.0967163042852,144.7865625493503,145.8997039794922,387200,0.0,0.0
2024-08-21 00:00:00-04:00,145.95880891606805,147.33792527768335,145.25941289525127,147.10150146484375,267300,0.0,0.0
2024-08-22 00:00:00-04:00,147.33791728832864,148.1555176556925,146.4513393115624,146.76657104492188,200400,0.0,0.0
2024-08-23 00:00:00-04:00,147.42657245924363,148.2835843197592,147.20985439756072,148.19493103027344,221400,0.0,0.0
2024-08-26 00:00:00-04:00,148.4313421940693,150.39165013594368,147.89940741750647,147.9191131591797,235500,0.0,0.0
2024-08-27 00:00:00-04:00,147.77134462433034,149.27851071438698,147.60388339555485,148.94358825683594,208300,0.0,0.0
2024-08-28 00:00:00-04:00,148.6776364771371,149.70212478216982,148.6776364771371,149.27853393554688,249000,0.0,0.0
2024-08-29 00:00:00-04:00,150.27345172103225,150.6280799298619,148.95345256691851,150.00747680664062,187100,0.0,0.0
2024-08-30 00:00:00-04:00,149.9286688147789,151.15016931833227,149.377028274812,150.90390014648438,178500,0.0,0.0
2024-09-03 00:00:00-04:00,149.84000386066862,150.10597875426933,147.4955167171667,147.80088806152344,362400,0.0,0.0
2024-09-04 00:00:00-04:00,147.36747963450603,148.64806731357916,147.36747963450603,148.48060607910156,175800,0.0,0.0
2024-09-05 00:00:00-04:00,148.82539237992884,149.4952373333449,147.71225087848865,148.47076416015625,200600,0.0,0.0
2024-09-06 00:00:00-04:00,148.13584927043814,150.83494999648312,148.13584927043814,150.1060028076172,319100,0.0,0.0
2024-09-09 00:00:00-04:00,150.2931596017108,150.77583756568123,149.18001811878258,149.64300537109375,241500,0.0,0.0
2024-09-10 00:00:00-04:00,149.6036059034956,150.509874738183,149.18003010263163,149.2489776611328,158100,0.0,0.0
2024-09-11 00:00:00-04:00,148.53971715509678,148.62838548659613,146.41196278960206,148.58897399902344,178000,0.0,0.0
2024-09-12 00:00:00-04:00,148.63823661809067,149.74151781573806,147.7319677727262,149.69227600097656,200400,0.0,0.0
2024-09-13 00:00:00-04:00,149.91882351220255,150.72657857998954,149.63314285535446,150.00747680664062,138600,0.0,0.0
2024-09-16 00:00:00-04:00,150.75613573240108,150.8842005168951,149.8006251355113,150.70689392089844,182900,0.0,0.0
2024-09-17 00:00:00-04:00,151.7018023977328,153.2483799357953,149.60358434683263,150.74627685546875,259900,0.0,0.0
2024-09-18 00:00:00-04:00,151.46539589883264,153.1695895012971,150.43107733462455,150.78570556640625,214200,0.0,0.0
2024-09-19 00:00:00-04:00,152.70659868608976,156.44003287404942,152.70659868608976,154.55853271484375,412400,0.0,0.0
2024-09-20 00:00:00-04:00,153.9773376586308,153.9773376586308,152.17464548118008,153.58331298828125,663300,0.0,0.0
2024-09-23 00:00:00-04:00,153.83942604845143,154.5683882158064,152.43077358591063,153.632568359375,315800,0.0,0.0
2024-09-24 00:00:00-04:00,153.84929068596824,154.73586884349922,153.7015351752528,154.29258728027344,246200,0.0,0.0
2024-09-25 00:00:00-04:00,154.95255299807312,155.5140388468554,153.54388563653302,154.79493713378906,284100,0.0,0.0
2024-09-26 00:00:00-04:00,155.58301283158644,156.68629390031595,155.34658901782558,156.01644897460938,371600,0.0,0.0
2024-09-27 00:00:00-04:00,156.31197202343316,159.13915252698433,155.89824159071117,157.50392150878906,354300,0.0,0.0
2024-09-30 00:00:00-04:00,156.91287560379237,158.026017188838,156.5582473573845,157.79945373535156,289800,0.0,0.0
2024-10-01 00:00:00-04:00,158.1442344139527,158.1442344139527,156.6764794945942,157.58274841308594,192200,0.0,0.0
2024-10-02 00:00:00-04:00,157.47435610844042,157.72062527444066,155.60271645926937,156.38092041015625,186900,0.0,0.0
2024-10-03 00:00:00-04:00,155.63229524330936,158.0654362387278,154.30243549789841,156.568115234375,367000,0.0,0.0
2024-10-04 00:00:00-04:00,157.5531605590218,159.06032661910723,156.9522632060345,158.18360900878906,350500,0.0,0.0
2024-10-07 00:00:00-04:00,157.01137380033816,157.25764297406545,155.6519631514186,156.3218231201172,223300,0.0,0.0
2024-10-08 00:00:00-04:00,155.91792947604674,156.64689160129876,154.755546255023,156.30210876464844,205900,0.0,0.0
2024-10-09 00:00:00-04:00,155.98689745116081,157.66152479193522,155.76031899360427,157.31674194335938,152600,0.0,0.0
2024-10-10 00:00:00-04:00,155.6913798785606,157.00153373063048,155.6913798785606,156.8439178466797,168500,0.0,0.0
2024-10-11 00:00:00-04:00,158.53826270659135,159.50363376255672,157.9570710016485,159.13916015625,194400,0.0,0.0
2024-10-14 00:00:00-04:00,162.5278261186399,165.2564780234564,161.0206598219905,164.6949920654297,469700,0.0,0.0
2024-10-15 00:00:00-04:00,164.82302993158925,167.12810565210728,164.00541452007354,166.1627197265625,397300,0.0,0.0
2024-10-16 00:00:00-04:00,166.18245700401974,166.67499541543123,163.44394463905823,163.56214904785156,330000,0.0,0.0
2024-10-17 00:00:00-04:00,164.4881132835198,165.8081275664015,164.03498639102784,165.38453674316406,238200,0.0,0.0
2024-10-18 00:00:00-04:00,166.57648214165218,166.57648214165218,165.2761736346556,166.11349487304688,171500,0.0,0.0
2024-10-21 00:00:00-04:00,165.95587236851253,165.9755781111569,163.81825773946284,163.84780883789062,217900,0.0,0.0
2024-10-22 00:00:00-04:00,163.24690273972104,163.88719654625731,162.3504793857089,163.33555603027344,228500,0.0,0.0
2024-10-23 00:00:00-04:00,164.02509982121674,165.47316363070323,163.68033202867184,165.14808654785156,318100,0.0,0.0
2024-10-24 00:00:00-04:00,166.25438631798596,166.26425817236012,164.11100326765825,164.506103515625,547300,0.45,0.0
2024-10-25 00:00:00-04:00,166.84699953906053,167.76559434792017,162.58989458720737,166.83712768554688,518900,0.0,0.0
2024-10-28 00:00:00-04:00,167.814965802635,169.30644459182432,166.68895658861797,167.02479553222656,350000,0.0,0.0
2024-10-29 00:00:00-04:00,166.95566702297245,167.4100285463907,165.58272566974384,166.6297149658203,338100,0.0,0.0
2024-10-30 00:00:00-04:00,166.2840101721286,168.11129787803878,166.0568218869867,166.95565795898438,290300,0.0,0.0
2024-10-31 00:00:00-04:00,167.01492280877136,168.190321532517,165.80002159675908,165.8494110107422,329900,0.0,0.0
2024-11-01 00:00:00-04:00,166.0370724645558,168.8916056035141,165.56295220264656,167.33099365234375,316300,0.0,0.0
2024-11-04 00:00:00-05:00,167.54831179553008,168.47677856206764,166.11609408417158,166.1951141357422,191800,0.0,0.0
2024-11-05 00:00:00-05:00,165.6814872601678,168.26932959601234,165.6814872601678,168.21994018554688,206200,0.0,0.0
2024-11-06 00:00:00-05:00,173.00054209288007,173.00054209288007,170.0274864290188,171.03497314453125,264100,0.0,0.0
2024-11-07 00:00:00-05:00,172.06219761024633,173.3067444132421,171.4102935773944,172.56594848632812,412300,0.0,0.0
2024-11-08 00:00:00-05:00,172.55606865304011,175.6575337916526,172.34865422503788,173.60305786132812,309200,0.0,0.0
2024-11-11 00:00:00-05:00,174.15619299950882,175.84519929208736,173.74133401275535,173.98826599121094,189100,0.0,0.0
2024-11-12 00:00:00-05:00,174.48213123535686,175.0649021631757,172.80299678377733,173.54379272460938,179800,0.0,0.0
2024-11-13 00:00:00-05:00,173.34625244140625,174.22532969992872,172.9017778853501,173.34625244140625,168400,0.0,0.0
2024-11-14 00:00:00-05:00,173.0005422185195,173.63268749563633,171.77576922184258,171.96343994140625,198200,0.0,0.0
2024-11-15 00:00:00-05:00,170.84731153010915,171.62761001025086,164.13075818796634,164.44683837890625,620500,0.0,0.0
2024-11-18 00:00:00-05:00,164.3480572551266,165.76051609741364,162.3133400368618,164.64437866210938,384400,0.0,0.0
2024-11-19 00:00:00-05:00,164.3776861785157,165.61234613515475,164.16038482042458,164.85179138183594,287600,0.0,0.0
2024-11-20 00:00:00-05:00,164.95055204478902,166.8667464979519,163.61711340982652,166.65931701660156,221800,0.0,0.0
2024-11-21 00:00:00-05:00,166.61982839227232,168.14092278641004,165.6814898648052,167.79522705078125,205100,0.0,0.0
2024-11-22 00:00:00-05:00,168.09151730210306,169.95833739642705,168.09151730210306,169.4051971435547,241600,0.0,0.0
2024-11-25 00:00:00-05:00,169.93859733485252,171.88442260806409,169.6324040808553,170.38307189941406,270100,0.0,0.0
2024-11-26 00:00:00-05:00,170.73863976432673,170.73863976432673,169.0595054040264,169.92869567871094,140300,0.0,0.0
2024-11-27 00:00:00-05:00,170.5509794809398,171.74613690502596,169.4150983926073,169.6225128173828,167200,0.0,0.0
2024-11-29 00:00:00-05:00,170.47196327119065,171.36092746909895,169.97809929619686,170.83743286132812,117300,0.0,0.0
2024-12-02 00:00:00-05:00,170.8571786767367,170.9855881347097,168.7434414405468,170.63987731933594,170900,0.0,0.0
2024-12-03 00:00:00-05:00,171.32141917569078,171.32141917569078,168.9903804848018,170.2843017578125,160100,0.0,0.0
2024-12-04 00:00:00-05:00,169.78054783121863,170.76827572949122,168.9311012358429,170.47195434570312,173400,0.0,0.0
2024-12-05 00:00:00-05:00,169.89906504559463,170.32379586577252,168.43723202187246,169.000244140625,245000,0.0,0.0
2024-12-06 00:00:00-05:00,169.49412648666032,170.53122880286617,168.7533305056374,169.0496368408203,209200,0.0,0.0
2024-12-09 00:00:00-05:00,169.45460074432523,171.34116470205902,168.1409207928341,168.6940460205078,301700,0.0,0.0
2024-12-10 00:00:00-05:00,168.62490558451546,169.26692268058784,166.1259552433873,168.8125762939453,287000,0.0,0.0
2024-12-11 00:00:00-05:00,169.7706882600862,171.96344555860944,169.6422788011308,170.19540405273438,418600,0.0,0.0
2024-12-12 00:00:00-05:00,169.56326100485617,170.4818558660907,168.68418370299355,169.53363037109375,178300,0.0,0.0
2024-12-13 00:00:00-05:00,168.81259109812913,168.9014829983288,167.735971227179,168.11129760742188,153200,0.0,0.0
2024-12-16 00:00:00-05:00,168.05202176601492,168.8323201637606,165.53331264473417,165.5728302001953,236100,0.0,0.0
2024-12-17 00:00:00-05:00,164.85178780773057,164.86167473295026,160.84161476695553,161.0885467529297,511900,0.0,0.0
2024-12-18 00:00:00-05:00,161.68119290074782,162.4022300947158,155.97212647235614,156.26844787597656,468600,0.0,0.0
2024-12-19 00:00:00-05:00,156.56475119910053,159.58721137210205,156.288188580112,156.9203338623047,404700,0.0,0.0
2024-12-20 00:00:00-05:00,156.77218158240578,157.81917079898025,155.53752164370331,156.23880004882812,730200,0.0,0.0
2024-12-23 00:00:00-05:00,155.2411920453163,156.94995709020597,155.0337776266267,156.5746307373047,194900,0.0,0.0
2024-12-24 00:00:00-05:00,156.83142758567232,157.46357280990827,155.98198102764923,157.39443969726562,100500,0.0,0.0
2024-12-26 00:00:00-05:00,156.47585813869574,157.67101557522113,156.47585813869574,156.9005889892578,164500,0.0,0.0
2024-12-27 00:00:00-05:00,155.88324575058945,157.62164166680031,155.67581623172129,156.2091827392578,145000,0.0,0.0
2024-12-30 00:00:00-05:00,155.07328561079504,155.55727772412172,153.0978297431416,154.8065948486328,221700,0.0,0.0
2024-12-31 00:00:00-05:00,155.34985716824414,156.30795452492524,154.2633503498842,155.1720733642578,317100,0.0,0.0
2025-01-02 00:00:00-05:00,155.71530356167833,156.16966504511277,151.56684923199984,152.2681427001953,239400,0.0,0.0
2025-01-03 00:00:00-05:00,152.14960068285353,153.80899140948185,150.99396083629736,153.59169006347656,250700,0.0,0.0
2025-01-06 00:00:00-05:00,152.11011353788479,152.74225886141465,149.58153224376528,151.04336547851562,369000,0.0,0.0
2025-01-07 00:00:00-05:00,154.0065210808939,154.14480237390572,150.72727253024303,151.5470733642578,361200,0.0,0.0
2025-01-08 00:00:00-05:00,151.01372323373394,152.36690568048937,150.22353787218913,152.2582550048828,228600,0.0,0.0
2025-01-10 00:00:00-05:00,150.84581158167944,152.40642352904024,150.7075302735099,151.5668487548828,350800,0.0,0.0
2025-01-13 00:00:00-05:00,151.05323931027544,152.80152213086694,151.05323931027544,152.00146484375,349300,0.0,0.0
2025-01-14 00:00:00-05:00,152.9101585386284,153.54230381140852,151.59647858222723,152.71261596679688,196900,0.0,0.0
2025-01-15 00:00:00-05:00,154.2040804325051,154.99426579503287,152.278013973022,153.6509552001953,206100,0.0,0.0
2025-01-16 00:00:00-05:00,153.97691677256847,155.2412074023744,153.4040327260106,154.49053955078125,346300,0.0,0.0
2025-01-17 00:00:00-05:00,155.043643818656,156.01161290410397,153.76946643567518,154.1744384765625,231900,0.0,0.0
2025-01-21 00:00:00-05:00,154.79672624937334,158.29327657715456,154.79672624937334,157.86856079101562,270900,0.0,0.0
2025-01-22 00:00:00-05:00,157.38456509447906,158.77726509600365,156.39683716231107,157.11788940429688,280000,0.0,0.0
2025-01-23 00:00:00-05:00,156.51536468056645,157.84878826017882,155.79431248502868,157.66111755371094,149800,0.0,0.0
2025-01-24 00:00:00-05:00,157.69075395064,158.50069806679787,155.2905823766471,156.35733032226562,329600,0.0,0.0
2025-01-27 00:00:00-05:00,156.3079361154992,156.96971198272828,154.7275654879306,156.51536560058594,317000,0.0,0.0
2025-01-28 00:00:00-05:00,155.6363008780896,158.38218338328682,155.6363008780896,156.47586059570312,204300,0.0,0.0
2025-01-29 00:00:00-05:00,156.8314343218391,156.87095187778738,154.6979384465815,155.1819305419922,265800,0.0,0.0
2025-01-30 00:00:00-05:00,155.88321413127244,156.73264560057893,154.65842619030022,156.1894073486328,274200,0.0,0.0
2025-01-31 00:00:00-05:00,155.96224681346368,157.4339669747109,154.8362374844696,155.22145080566406,834100,0.0,0.0
2025-02-03 00:00:00-05:00,152.68298284661782,154.8263506127043,152.24838015275108,154.0657958984375,364600,0.0,0.0
2025-02-04 00:00:00-05:00,154.17445161647603,156.51537709930176,154.17445161647603,155.7646942138672,302400,0.0,0.0
2025-02-05 00:00:00-05:00,156.78495431943927,158.1519242725668,156.28967710333927,156.8245849609375,262600,0.45,0.0
2025-02-06 00:00:00-05:00,158.330223321249,158.330223321249,153.90244361820098,154.9722442626953,446600,0.0,0.0
2025-02-07 00:00:00-05:00,156.13120083363538,156.4085548940201,140.69835937805564,141.8275909423828,1221500,0.0,0.0
2025-02-10 00:00:00-05:00,142.89739020246924,143.23419022779987,139.5691263969747,141.92665100097656,621900,0.0,0.0
2025-02-11 00:00:00-05:00,140.92619893722295,141.71864559383863,138.93517463420997,140.9459991455078,377300,0.0,0.0
2025-02-12 00:00:00-05:00,139.63847169913737,142.1346733181671,138.60828653556084,140.361572265625,423500,0.0,0.0
2025-02-13 00:00:00-05:00,141.4016629482476,142.42193293232637,140.1238542207432,141.42147827148438,665900,0.0,0.0
2025-02-14 00:00:00-05:00,142.33279280826997,143.9374864226297,141.37195363766446,143.42239379882812,512800,0.0,0.0
2025-02-18 00:00:00-05:00,143.42239559513484,145.89878212468776,142.54080259520055,145.51246643066406,489600,0.0,0.0
2025-02-19 00:00:00-05:00,144.7596300671168,146.09688465141588,144.23463740564512,145.651123046875,331000,0.0,0.0
2025-02-20 00:00:00-05:00,145.58180970137414,146.02755624516584,144.5417243560844,145.29454040527344,283100,0.0,0.0
2025-02-21 00:00:00-05:00,145.6412334671298,145.99783370773258,143.82851683695435,144.95774841308594,451900,0.0,0.0
2025-02-24 00:00:00-05:00,144.79925789610297,145.89877405902692,142.9964564618772,144.23464965820312,353300,0.0,0.0
2025-02-25 00:00:00-05:00,144.50208762463168,146.92894299785002,144.3435952855276,146.31480407714844,336700,0.0,0.0
2025-02-26 00:00:00-05:00,145.26479817411075,147.7708996221253,145.23508275098493,145.25489807128906,735600,0.0,0.0
2025-02-27 00:00:00-05:00,144.8487791930552,145.78980293791258,143.9870016213501,144.25445556640625,262800,0.0,0.0
2025-02-28 00:00:00-05:00,144.77945280135046,145.56198422456703,143.26390558936882,145.36387634277344,348700,0.0,0.0
2025-03-03 00:00:00-05:00,145.581783556318,147.43411547535325,144.31387511451211,145.2053680419922,394100,0.0,0.0
2025-03-04 00:00:00-05:00,144.1652925761329,146.55253250388583,143.7690768294277,144.5615234375,490100,0.0,0.0
2025-03-05 00:00:00-05:00,144.67049334875352,147.44404907906232,144.67049334875352,147.0379180908203,445100,0.0,0.0
2025-03-06 00:00:00-05:00,146.16621830199009,150.06900541563368,145.67094105639393,149.72230529785156,471700,0.0,0.0
2025-03-07 00:00:00-05:00,149.08835113379365,151.91143748155838,147.77091184581425,151.3369140625,480200,0.0,0.0
2025-03-10 00:00:00-04:00,150.63362836403152,152.54539127234196,148.82091183580206,149.14779663085938,391100,0.0,0.0
2025-03-11 00:00:00-04:00,148.91995850666456,149.13788170379496,145.87896407979193,146.49310302734375,304000,0.0,0.0
2025-03-12 00:00:00-04:00,146.83979727055856,146.83979727055856,144.18510348201886,144.65066528320312,299700,0.0,0.0
2025-03-13 00:00:00-04:00,145.0270937364904,145.80962517214004,142.40211513836567,143.39266967773438,238400,0.0,0.0
2025-03-14 00:00:00-04:00,143.85821851541314,145.5025425296349,143.17473352669074,145.27471923828125,223600,0.0,0.0
2025-03-17 00:00:00-04:00,145.12613370517485,146.60206534485752,144.482279328917,146.44357299804688,225200,0.0,0.0
2025-03-18 00:00:00-04:00,145.99782207785853,146.13649909845384,144.4030287836816,144.91812133789062,219900,0.0,0.0
2025-03-19 00:00:00-04:00,144.95773581468725,146.0671670860647,144.09595827257124,145.59169006347656,279600,0.0,0.0
2025-03-20 00:00:00-04:00,144.74974534584615,146.0275541012439,142.37240528942087,143.82852172851562,332800,0.0,0.0
2025-03-21 00:00:00-04:00,142.63984075733828,144.08605690435675,141.0153320644106,143.4521026611328,601900,0.0,0.0
2025-03-24 00:00:00-04:00,144.37333063502606,146.78037101939145,143.54126841188716,146.59217834472656,463800,0.0,0.0
2025-03-25 00:00:00-04:00,147.08744285003115,147.82044350517103,144.55161063882232,145.8195343017578,325200,0.0,0.0
2025-03-26 00:00:00-04:00,145.66103699900552,147.29544581924438,144.91812115077664,147.15676879882812,630400,0.0,0.0
2025-03-27 00:00:00-04:00,146.87943040989728,148.47422387196093,145.64123719757035,147.9393310546875,312700,0.0,0.0
2025-03-28 00:00:00-04:00,147.87986917209872,148.58316949147616,144.38321312590557,145.5421600341797,239800,0.0,0.0
2025-03-31 00:00:00-04:00,145.1954839412941,147.68177035524897,144.72002200188086,146.97848510742188,372500,0.0,0.0
2025-04-01 00:00:00-04:00,147.47375771063503,148.61288933138113,145.9879259715773,147.69168090820312,240000,0.0,0.0
2025-04-02 00:00:00-04:00,146.6020528459117,149.70249298941195,146.6020528459117,149.108154296875,247600,0.0,0.0
2025-04-03 00:00:00-04:00,145.37378420173204,148.63271722253594,145.07662992052116,147.2657470703125,352900,0.0,0.0
2025-04-04 00:00:00-04:00,143.8483298002135,146.56245464887016,138.71724948430474,138.85592651367188,531600,0.0,0.0
2025-04-07 00:00:00-04:00,135.05218265731688,140.77758585423433,129.61404869930942,133.37814331054688,629900,0.0,0.0
2025-04-08 00:00:00-04:00,136.08238602968135,137.99414901559882,130.03999735696206,132.39752197265625,473800,0.0,0.0
2025-04-09 00:00:00-04:00,131.92202927052327,143.05586629722916,130.07961257517985,142.39219665527344,491800,0.0,0.0
2025-04-10 00:00:00-04:00,138.67763443664703,142.0157983717514,136.27059417967757,139.43045043945312,309000,0.0,0.0
2025-04-11 00:00:00-04:00,139.5394227040717,143.34316388353207,138.4201062757106,142.7488250732422,203000,0.0,0.0
2025-04-14 00:00:00-04:00,144.42284856795507,145.01717219687393,142.43182435722224,144.41293334960938,249300,0.0,0.0
2025-04-15 00:00:00-04:00,144.72003060367427,145.1558619238213,142.41203661181956,142.58042907714844,250700,0.0,0.0
2025-04-16 00:00:00-04:00,142.69927796874322,144.44266355134033,141.22336144625882,143.63040161132812,307700,0.0,0.0
2025-04-17 00:00:00-04:00,144.026628884614,144.38322913552085,139.38094063303606,142.47146606445312,390600,0.0,0.0
2025-04-21 00:00:00-04:00,141.94647688677207,142.68939283511736,139.7672597945586,141.2332763671875,291600,0.0,0.0
2025-04-22 00:00:00-04:00,143.13513046097071,145.43322423967282,142.23372220563516,144.64077758789062,217800,0.0,0.0
2025-04-23 00:00:00-04:00,146.4732884005367,147.9096045106202,145.82943402438084,146.65159606933594,537000,0.0,0.0
2025-04-24 00:00:00-04:00,146.53273210549278,150.56429651051678,144.08607619268724,150.02940368652344,424500,0.0,0.0
2025-04-25 00:00:00-04:00,149.42517032404277,151.55485670905605,146.1761523828518,147.65206909179688,220500,0.0,0.0
2025-04-28 00:00:00-04:00,148.3850722414695,149.60345008639197,146.87942511742685,148.2860107421875,235200,0.0,0.0
2025-04-29 00:00:00-04:00,148.34543269560234,150.54446483869538,147.60251683954823,148.88034057617188,359900,0.0,0.0
2025-04-30 00:00:00-04:00,147.6619679397673,148.57327627446125,145.8195359480902,148.5336456298828,556200,0.0,0.0
2025-05-01 00:00:00-04:00,147.49043252263488,149.55698945100644,146.01007342098333,147.321533203125,445300,0.45,0.0
2025-05-02 00:00:00-04:00,152.00109276483386,152.01102266813578,146.83469293818283,151.01748657226562,431600,0.0,0.0
2025-05-05 00:00:00-04:00,150.45115939800078,152.22959744819886,149.9047266890984,150.50083923339844,267600,0.0,0.0
2025-05-06 00:00:00-04:00,149.27879067725587,151.05721352633617,148.45415394115105,149.9444580078125,312000,0.0,0.0
2025-05-07 00:00:00-04:00,150.89827616217718,152.16005616446157,149.64641090363295,150.41143798828125,318400,0.0,0.0
2025-05-08 00:00:00-04:00,150.8088240511965,153.57086810201378,150.26239137467758,152.36868286132812,302500,0.0,0.0
2025-05-09 00:00:00-04:00,152.91513158455209,153.30261002368533,151.95140043796184,152.32894897460938,231600,0.0,0.0
2025-05-12 00:00:00-04:00,154.78298382447863,155.57781574408938,152.70649699411595,154.51473999023438,352500,0.0,0.0
2025-05-13 00:00:00-04:00,155.2996205897217,155.2996205897217,152.20972280733352,152.64688110351562,339400,0.0,0.0
2025-05-14 00:00:00-04:00,152.62701534673135,152.62701534673135,149.99415066789234,151.494384765625,350100,0.0,0.0
2025-05-15 00:00:00-04:00,151.36522536472287,154.47498293511407,151.36522536472287,153.9484100341797,278100,0.0,0.0
2025-05-16 00:00:00-04:00,154.1769139151355,156.13418110776666,153.59073129565786,155.99508666992188,278600,0.0,0.0
2025-05-19 00:00:00-04:00,155.34929853126698,157.31649567994577,155.2996186963688,157.0581817626953,185400,0.0,0.0
2025-05-20 00:00:00-04:00,159.2240927799544,159.2240927799544,156.88929199923413,157.50527954101562,388100,0.0,0.0
2025-05-21 00:00:00-04:00,155.84605884611838,156.63094562209463,154.82271797052783,155.43870544433594,319800,0.0,0.0
2025-05-22 00:00:00-04:00,155.34930186196166,156.24347826867125,154.55446996702122,155.63742065429688,278900,0.0,0.0
2025-05-23 00:00:00-04:00,154.11731521461456,155.1704610565874,153.2628735609117,154.93202209472656,260500,0.0,0.0
2025-05-27 00:00:00-04:00,156.01497936059593,157.41586896100623,155.6771807103314,157.13768005371094,352800,0.0,0.0
2025-05-28 00:00:00-04:00,157.13766546061635,157.81326269840386,156.2434739186448,156.382568359375,364400,0.0,0.0
2025-05-29 00:00:00-04:00,156.80981151755603,157.64437824056137,155.8063454691919,157.30657958984375,232100,0.0,0.0
2025-05-30 00:00:00-04:00,157.2171596355886,157.75366246496796,155.52813611904918,157.37611389160156,335100,0.0,0.0
2025-06-02 00:00:00-04:00,156.52166938265543,158.0417935519205,154.25640830397938,155.895751953125,349600,0.0,0.0
2025-06-03 00:00:00-04:00,155.1704542609852,156.42231939656108,154.99162504742128,155.24993896484375,397800,0.0,0.0
2025-06-04 00:00:00-04:00,155.47846034120943,155.5082652095938,149.3185247657197,149.43775939941406,831900,0.0,0.0
2025-06-05 00:00:00-04:00,150.60019679029278,152.34881478658195,148.08655178805842,151.5043182373047,482400,0.0,0.0
2025-06-06 00:00:00-04:00,153.37216133250158,153.48145090878683,151.22613490023483,152.3190155029297,264700,0.0,0.0
2025-06-09 00:00:00-04:00,151.72289703426236,152.18984503093586,150.3816173012118,150.6200714111328,388400,0.0,0.0
2025-06-10 00:00:00-04:00,151.1764638594459,152.01103058500394,149.88486383551546,151.5440673828125,323500,0.0,0.0
2025-06-11 00:00:00-04:00,152.01102435470298,152.59720701933225,150.62007986911524,150.93800354003906,380800,0.0,0.0
2025-06-12 00:00:00-04:00,150.4313114861511,153.6205540247376,150.4313114861511,153.35231018066406,337200,0.0,0.0
2025-06-13 00:00:00-04:00,152.01102517134845,152.72637238496742,149.75569395173977,150.18292236328125,361200,0.0,0.0
2025-06-16 00:00:00-04:00,150.26239971844478,151.91165806232243,150.14316508190436,150.70948791503906,346200,0.0,0.0
2025-06-17 00:00:00-04:00,149.68614833096728,150.28226087841142,148.16603935275657,148.4839630126953,379700,0.0,0.0
2025-06-18 00:00:00-04:00,148.1560928453656,149.7556865130082,148.1560928453656,148.7323455810547,383200,0.0,0.0
2025-06-20 00:00:00-04:00,149.31853088884125,149.7954391228616,148.02694611213587,149.32847595214844,570500,0.0,0.0
2025-06-23 00:00:00-04:00,148.52372049521952,152.94495321084426,148.52372049521952,152.79591369628906,356500,0.0,0.0
2025-06-24 00:00:00-04:00,153.57086880695473,153.57086880695473,152.18983919512854,152.87538146972656,246600,0.0,0.0
2025-06-25 00:00:00-04:00,152.86545791807578,153.53112525522516,151.78250725734722,152.93499755859375,264700,0.0,0.0
2025-06-26 00:00:00-04:00,153.53112514721053,154.574341035503,152.13023567322224,153.4814453125,658200,0.0,0.0
2025-06-27 00:00:00-04:00,153.66028449532695,155.10090869233022,153.23305612343526,154.8127899169922,643100,0.0,0.0
2025-06-30 00:00:00-04:00,155.02143014126432,155.48839330201264,153.6106107560815,155.41883850097656,315500,0.0,0.0
2025-07-01 00:00:00-04:00,155.41883763726284,158.76706444786785,154.95188963926665,157.98216247558594,338300,0.0,0.0
2025-07-02 00:00:00-04:00,157.99210676920643,159.4923407456575,157.62448812214086,159.28370666503906,293500,0.0,0.0
2025-07-03 00:00:00-04:00,159.5618955691631,160.31697750891556,158.7869386635823,159.99903869628906,235100,0.0,0.0
2025-07-07 00:00:00-04:00,159.90962585974881,161.32044524603683,159.51221749972524,159.91957092285156,313900,0.0,0.0
2025-07-08 00:00:00-04:00,159.85995374921617,161.529102294315,158.81675296370705,159.0154571533203,342700,0.0,0.0
2025-07-09 00:00:00-04:00,158.8962139445251,158.97569864811658,157.07805630543982,158.697509765625,252800,0.0,0.0
2025-07-10 00:00:00-04:00,158.16102128058495,159.32345675051914,157.30657958984375,157.30657958984375,361600,0.0,0.0
2025-07-11 00:00:00-04:00,157.5350709161001,157.5350709161001,155.61755364990313,156.87933349609375,292000,0.0,0.0
2025-07-14 00:00:00-04:00,156.12425111054648,157.91261899615117,155.67716292918448,156.54153442382812,276600,0.0,0.0
2025-07-15 00:00:00-04:00,156.72038949096165,156.97870341867736,153.07411383203788,153.1635284423828,254200,0.0,0.0
2025-07-16 00:00:00-04:00,152.92507983223925,154.60415832329446,152.55747631413544,153.9782257080078,261900,0.0,0.0
2025-07-17 00:00:00-04:00,153.7397836825051,155.39898717306704,153.51125946105387,155.0214385986328,397700,0.0,0.0
2025-07-18 00:00:00-04:00,155.83613429526102,156.19380787688712,153.9186018503842,155.36917114257812,243100,0.0,0.0
2025-07-21 00:00:00-04:00,155.40890634740893,155.65729035867128,154.23654109112596,154.44517517089844,205900,0.0,0.0
2025-07-22 00:00:00-04:00,155.10091070494084,158.3299028119182,154.2265941447245,158.14112854003906,449900,0.0,0.0
2025-07-23 00:00:00-04:00,159.0353324921988,160.80382555616052,158.11133602610758,160.61505126953125,450500,0.0,0.0
2025-07-24 00:00:00-04:00,160.36596689139284,163.67370617715738,159.20027152118774,161.22279357910156,431900,0.45,0.0
2025-07-25 00:00:00-04:00,161.4519443159114,162.48809942211037,160.1866270976646,160.39585876464844,296300,0.0,0.0
2025-07-28 00:00:00-04:00,160.60507716525916,161.3821973048954,157.5763031854557,158.1143035888672,308500,0.0,0.0
2025-07-29 00:00:00-04:00,158.46301837287766,159.01099160157025,156.63977028603261,158.23387145996094,388200,0.0,0.0
2025-07-30 00:00:00-04:00,158.2139411794794,158.34345106823227,154.34825571028387,156.2113494873047,580700,0.0,0.0
2025-07-31 00:00:00-04:00,155.20507720090802,156.76929025695372,154.60728547959022,156.56005859375,679700,0.0,0.0
2025-08-01 00:00:00-04:00,156.3906864594005,157.5364361790711,140.5692884515745,140.82833862304688,1012300,0.0,0.0
2025-08-04 00:00:00-04:00,142.59179613946068,142.59179613946068,136.57409406621255,138.6165313720703,839000,0.0,0.0
2025-08-05 00:00:00-04:00,138.82574228984998,140.549368424906,137.1818379302022,139.70249938964844,540800,0.0,0.0
2025-08-06 00:00:00-04:00,139.79217373051944,140.2405099336514,137.04236517583132,138.02870178222656,515300,0.0,0.0
2025-08-07 00:00:00-04:00,139.28405592850498,140.9678212320078,138.3973411784471,139.9715118408203,564000,0.0,0.0
2025-08-08 00:00:00-04:00,140.1707689136227,141.5257502766756,140.06117427387304,140.2305450439453,428700,0.0,0.0
2025-08-11 00:00:00-04:00,140.80840868971592,141.09733172532074,138.68626481251795,139.35379028320312,349500,0.0,0.0
2025-08-12 00:00:00-04:00,139.7024996187182,140.56928389677475,138.71614787982762,138.96522521972656,286100,0.0,0.0
2025-08-13 00:00:00-04:00,139.17446660105043,140.91800810219684,138.73608801979466,140.9080352783203,729900,0.0,0.0
2025-08-14 00:00:00-04:00,139.67261570690306,139.67261570690306,135.9364554973346,137.82943725585938,875800,0.0,0.0
2025-08-15 00:00:00-04:00,137.84936634538602,138.43718523065303,137.36116927657673,138.20803833007812,770500,0.0,0.0
2025-08-18 00:00:00-04:00,138.37741292257056,139.0549112245806,136.84310312496342,137.381103515625,529500,0.0,0.0
2025-08-19 00:00:00-04:00,137.75970856476783,140.00140477286192,137.75970856476783,139.0748291015625,333100,0.0,0.0
2025-08-20 00:00:00-04:00,139.393648840335,140.72869975936982,138.74603862261242,140.65895080566406,519200,0.0,0.0
2025-08-21 00:00:00-04:00,140.1109987995753,141.3763008190009,139.72243873331917,140.12095642089844,270400,0.0,0.0
2025-08-22 00:00:00-04:00,140.73866449964885,142.801032315336,140.66893074489022,140.9080352783203,356500,0.0,0.0
2025-08-25 00:00:00-04:00,140.44973703337416,141.08737443990944,138.4471606165544,139.04493713378906,245800,0.0,0.0
2025-08-26 00:00:00-04:00,138.55675954638778,139.64273317507582,137.50065878188727,139.19439697265625,442900,0.0,0.0
2025-08-27 00:00:00-04:00,138.57667015211817,140.05121900303388,138.51689402079253,138.92538452148438,729100,0.0,0.0
2025-08-28 00:00:00-04:00,139.65268569461995,139.65268569461995,136.89290442125153,138.37741088867188,320800,0.0,0.0
2025-08-29 00:00:00-04:00,138.65637494364685,139.35378847092917,137.83940915525176,138.75601196289062,370700,0.0,0.0
2025-09-02 00:00:00-04:00,136.91283746702226,138.0187415215873,135.6674507029839,135.9065704345703,310600,0.0,0.0
2025-09-03 00:00:00-04:00,135.57778924348088,135.6774110651314,133.94384238415293,134.72096252441406,382300,0.0,0.0
2025-09-04 00:00:00-04:00,135.8467917014058,137.96892036901434,134.5416136276031,137.94900512695312,401800,0.0,0.0
2025-09-05 00:00:00-04:00,138.5069313024626,140.30029118860833,137.1220619019756,138.1083984375,440800,0.0,0.0
2025-09-08 00:00:00-04:00,138.0785196018611,139.48331954010914,137.1718743762563,137.7895965576172,616100,0.0,0.0
2025-09-09 00:00:00-04:00,137.74973055841448,138.9652292283821,134.60140444515423,136.54420471191406,637100,0.0,0.0
2025-09-10 00:00:00-04:00,135.6276095966407,136.95270298263142,134.3523347233892,135.74716186523438,685100,0.0,0.0
2025-09-11 00:00:00-04:00,136.2453102876287,137.76966245161407,135.3685531518816,136.59402465820312,477500,0.0,0.0
2025-09-12 00:00:00-04:00,136.11578066498313,136.54420159748256,134.7209536341175,134.7309112548828,261300,0.0,0.0
2025-09-15 00:00:00-04:00,135.46818707582165,135.66744591053393,134.13313616052721,134.35232543945312,298000,0.0,0.0
2025-09-16 00:00:00-04:00,134.29253521558843,134.92021499246542,133.6050945105264,134.71099853515625,474800,0.0,0.0
2025-09-17 00:00:00-04:00,134.9202234437148,136.56414315220525,133.69476708100424,134.15306091308594,377400,0.0,0.0
2025-09-18 00:00:00-04:00,134.40213401806383,135.00988336938318,133.57521058169633,134.0036163330078,254800,0.0,0.0
2025-09-19 00:00:00-04:00,134.16302167221522,134.6014002217238,132.8478860236895,133.94383239746094,877200,0.0,0.0
2025-09-22 00:00:00-04:00,133.62500584924183,134.44198681766053,132.18036032475496,132.2301788330078,402100,0.0,0.0
2025-09-23 00:00:00-04:00,132.51911249007324,133.45564579146554,131.48295736665602,131.53277587890625,319700,0.0,0.0
2025-09-24 00:00:00-04:00,131.51283362791114,132.8179964383377,130.8552658111778,131.01467895507812,353300,0.0,0.0
2025-09-25 00:00:00-04:00,131.01468707936854,132.0309269316582,129.78923076490094,130.3372039794922,388700,0.0,0.0
2025-09-26 00:00:00-04:00,130.84530934560345,131.9412405140255,130.47667974924482,131.8017578125,274400,0.0,0.0
2025-09-29 00:00:00-04:00,131.9113549736489,132.1903203820378,130.8751999142723,131.78184509277344,540600,0.0,0.0
2025-09-30 00:00:00-04:00,131.22391724742639,133.2663393474204,131.22391724742639,133.16671752929688,310400,0.0,0.0
2025-10-01 00:00:00-04:00,132.83793505008853,133.864132523027,131.8216951983283,133.6449432373047,310100,0.0,0.0
2025-10-02 00:00:00-04:00,133.16671601295707,133.89401760712443,132.46930248413395,132.6884765625,398500,0.0,0.0
2025-10-03 00:00:00-04:00,131.98110050874084,133.08700449280963,131.94123962144647,132.72833251953125,402000,0.0,0.0
2025-10-06 00:00:00-04:00,132.3995623608993,132.70841585837292,130.9250286298273,131.39329528808594,447100,0.0,0.0
2025-10-07 00:00:00-04:00,131.62244210672506,132.02095980591378,129.33092733020055,130.10804748535156,438800,0.0,0.0
2025-10-08 00:00:00-04:00,130.6958618827827,131.5228005222907,129.77925904443626,131.12428283691406,361300,0.0,0.0
2025-10-09 00:00:00-04:00,131.2139490956711,132.34974123954802,129.71948494833435,130.1279754638672,554200,0.0,0.0
2025-10-10 00:00:00-04:00,130.456750166944,131.5227932779699,129.41062229735738,130.44677734375,426000,0.0,0.0
2025-10-13 00:00:00-04:00,130.50657288985758,131.8615542727262,129.67963426919383,129.73941040039062,311400,0.0,0.0
2025-10-14 00:00:00-04:00,129.56007316445456,130.57631305211217,128.56376372233257,129.3209686279297,337400,0.0,0.0
2025-10-15 00:00:00-04:00,129.3209660189343,129.90878492933314,127.38812330781582,127.62724304199219,438300,0.0,0.0
2025-10-16 00:00:00-04:00,127.96597514472943,129.02206062166923,127.37814867651251,128.68331909179688,352700,0.0,0.0
2025-10-17 00:00:00-04:00,128.6833272427598,129.61986052200092,128.3744737575792,128.86265563964844,339700,0.0,0.0
2025-10-20 00:00:00-04:00,129.13165784992026,129.60988209007235,127.54752960271524,129.5202178955078,240500,0.0,0.0
2025-10-21 00:00:00-04:00,130.12796519186372,131.28368768983484,128.64345878313492,130.08811950683594,311600,0.0,0.0
2025-10-22 00:00:00-04:00,130.16782074524266,131.62243919986034,129.5002952524821,129.5800018310547,357500,0.0,0.0
2025-10-23 00:00:00-04:00,129.74000549316406,131.52999877929688,129.66000366210938,130.77000427246094,378600,0.48,0.0
2025-10-24 00:00:00-04:00,130.75,130.88999938964844,128.5399932861328,128.8800048828125,489300,0.0,0.0
2025-10-27 00:00:00-04:00,129.13999938964844,129.89999389648438,128.4499969482422,128.77999877929688,521700,0.0,0.0
2025-10-28 00:00:00-04:00,128.75,129.11000061035156,127.47000122070312,128.10000610351562,413500,0.0,0.0
2025-10-29 00:00:00-04:00,127.27999877929688,127.5,123.41999816894531,124.30999755859375,651100,0.0,0.0
2025-10-30 00:00:00-04:00,124.04000091552734,125.5199966430664,123.04000091552734,124.36000061035156,702600,0.0,0.0
2025-10-31 00:00:00-04:00,115.29000091552734,118.0999984741211,103.2300033569336,116.01000213623047,2758200,0.0,0.0
2025-11-03 00:00:00-05:00,116.08999633789062,116.08999633789062,108.29000091552734,113.12000274658203,1661000,0.0,0.0
2025-11-04 00:00:00-05:00,114.36000061035156,116.0,112.52999877929688,114.18000030517578,1029100,0.0,0.0
2025-11-05 00:00:00-05:00,114.33000183105469,116.04000091552734,112.7699966430664,115.56999969482422,896900,0.0,0.0
2025-11-06 00:00:00-05:00,115.0199966430664,116.95999908447266,113.80000305175781,116.1500015258789,880300,0.0,0.0
2025-11-07 00:00:00-05:00,116.2300033569336,116.91999816894531,114.69000244140625,116.22000122070312,697200,0.0,0.0
2025-11-10 00:00:00-05:00,115.98999786376953,116.7699966430664,114.0,116.37999725341797,514000,0.0,0.0
2025-11-11 00:00:00-05:00,116.95999908447266,119.51000213623047,116.95999908447266,118.2699966430664,484800,0.0,0.0
2025-11-12 00:00:00-05:00,118.33999633789062,119.66999816894531,117.91000366210938,118.16000366210938,547500,0.0,0.0
2025-11-13 00:00:00-05:00,118.30000305175781,121.87999725341797,118.30000305175781,120.19999694824219,679400,0.0,0.0
2025-11-14 00:00:00-05:00,119.7699966430664,120.69000244140625,118.38999938964844,118.61000061035156,521200,0.0,0.0
2025-11-17 00:00:00-05:00,118.48999786376953,119.48999786376953,117.56999969482422,119.33999633789062,820200,0.0,0.0
2025-11-18 00:00:00-05:00,119.66000366210938,120.11000061035156,118.05999755859375,119.30999755859375,817400,0.0,0.0
2025-11-19 00:00:00-05:00,119.51000213623047,119.51000213623047,117.70999908447266,118.0,598900,0.0,0.0
2025-11-20 00:00:00-05:00,118.0,119.61000061035156,117.37000274658203,118.58000183105469,507400,0.0,0.0
2025-11-21 00:00:00-05:00,118.12999725341797,122.23999786376953,118.12999725341797,121.5199966430664,509100,0.0,0.0
2025-11-24 00:00:00-05:00,120.8499984741211,122.4000015258789,120.44000244140625,121.47000122070312,740000,0.0,0.0
2025-11-25 00:00:00-05:00,122.41000366210938,124.08000183105469,122.41000366210938,123.44000244140625,543600,0.0,0.0
2025-11-26 00:00:00-05:00,123.0199966430664,124.5199966430664,123.0199966430664,123.80999755859375,538000,0.0,0.0
2025-11-28 00:00:00-05:00,123.62999725341797,126.08000183105469,123.62999725341797,124.75,315700,0.0,0.0
2025-12-01 00:00:00-05:00,124.87999725341797,124.95999908447266,123.02999877929688,123.27999877929688,536800,0.0,0.0
2025-12-02 00:00:00-05:00,123.7699966430664,123.86000061035156,120.80000305175781,121.5999984741211,325400,0.0,0.0
2025-12-03 00:00:00-05:00,121.44999694824219,124.26000213623047,121.41000366210938,122.05999755859375,543100,0.0,0.0
2025-12-04 00:00:00-05:00,122.19999694824219,124.08000183105469,121.93000030517578,122.0199966430664,708000,0.0,0.0
2025-12-05 00:00:00-05:00,121.98999786376953,123.51000213623047,120.62000274658203,121.91000366210938,537000,0.0,0.0
2025-12-08 00:00:00-05:00,120.91999816894531,122.0999984741211,119.30000305175781,120.06999969482422,496600,0.0,0.0
2025-12-09 00:00:00-05:00,119.5999984741211,119.8499984741211,115.36000061035156,115.72000122070312,640300,0.0,0.0
2025-12-10 00:00:00-05:00,116.16999816894531,117.80000305175781,115.12999725341797,117.16999816894531,734700,0.0,0.0
2025-12-11 00:00:00-05:00,117.95999908447266,118.66999816894531,117.16000366210938,118.01000213623047,389700,0.0,0.0
2025-12-12 00:00:00-05:00,118.5199966430664,121.63999938964844,117.6500015258789,121.47000122070312,656400,0.0,0.0
2025-12-15 00:00:00-05:00,121.4800033569336,122.45999908447266,120.4800033569336,122.33000183105469,588600,0.0,0.0
2025-12-16 00:00:00-05:00,122.66999816894531,123.8499984741211,119.5199966430664,122.83000183105469,644800,0.0,0.0
2025-12-17 00:00:00-05:00,122.11000061035156,124.5999984741211,120.08000183105469,123.62999725341797,567300,0.0,0.0
2025-12-18 00:00:00-05:00,123.66999816894531,124.12000274658203,122.02999877929688,122.62000274658203,457100,0.0,0.0
2025-12-19 00:00:00-05:00,123.33999633789062,124.33000183105469,121.26000213623047,121.38999938964844,1300400,0.0,0.0
2025-12-22 00:00:00-05:00,121.38999938964844,123.69999694824219,121.06999969482422,122.73999786376953,527800,0.0,0.0
2025-12-23 00:00:00-05:00,122.87000274658203,123.02999877929688,121.31999969482422,122.19000244140625,311700,0.0,0.0
2025-12-24 00:00:00-05:00,122.52999877929688,123.16999816894531,121.76000213623047,122.75,198000,0.0,0.0
2025-12-26 00:00:00-05:00,122.37000274658203,123.4800033569336,121.72000122070312,123.25,306000,0.0,0.0
2025-12-29 00:00:00-05:00,123.29000091552734,124.30999755859375,122.31999969482422,123.20999908447266,400200,0.0,0.0
2025-12-30 00:00:00-05:00,122.80000305175781,124.30000305175781,122.41999816894531,122.73999786376953,289800,0.0,0.0
2025-12-31 00:00:00-05:00,121.5199966430664,123.33000183105469,121.3499984741211,121.95999908447266,314300,0.0,0.0
2026-01-02 00:00:00-05:00,121.73999786376953,123.0,120.77999877929688,122.54000091552734,295100,0.0,0.0
2026-01-05 00:00:00-05:00,121.76000213623047,124.58000183105469,121.76000213623047,123.0,435700,0.0,0.0
2026-01-06 00:00:00-05:00,122.22000122070312,122.8499984741211,120.11000061035156,120.55999755859375,777200,0.0,0.0
2026-01-07 00:00:00-05:00,120.66999816894531,121.94999694824219,117.61000061035156,120.44000244140625,478500,0.0,0.0
2026-01-08 00:00:00-05:00,119.91999816894531,123.37000274658203,119.5199966430664,122.44000244140625,330000,0.0,0.0
2026-01-09 00:00:00-05:00,122.08000183105469,124.97000122070312,121.45999908447266,123.8499984741211,429100,0.0,0.0
2026-01-12 00:00:00-05:00,124.0,125.30000305175781,122.9800033569336,125.12999725341797,477300,0.0,0.0
2026-01-13 00:00:00-05:00,125.05000305175781,125.44000244140625,122.54000091552734,123.5,351900,0.0,0.0
2026-01-14 00:00:00-05:00,124.11000061035156,127.16000366210938,124.11000061035156,126.8499984741211,611700,0.0,0.0
2026-01-15 00:00:00-05:00,127.13999938964844,127.22000122070312,124.5199966430664,125.11000061035156,381000,0.0,0.0
2026-01-16 00:00:00-05:00,124.0,125.19999694824219,123.23999786376953,124.70999908447266,363400,0.0,0.0
2026-01-20 00:00:00-05:00,124.9000015258789,125.52999877929688,123.44000244140625,123.81999969482422,275100,0.0,0.0
2026-01-21 00:00:00-05:00,124.30999755859375,125.62000274658203,123.9000015258789,125.01000213623047,421000,0.0,0.0
2026-01-22 00:00:00-05:00,125.05000305175781,126.41000366210938,124.05999755859375,124.47000122070312,369700,0.0,0.0
2026-01-23 00:00:00-05:00,124.33999633789062,126.27999877929688,123.87000274658203,126.0,429500,0.0,0.0
2026-01-26 00:00:00-05:00,126.41999816894531,126.98999786376953,125.0999984741211,126.3499984741211,315400,0.0,0.0
2026-01-27 00:00:00-05:00,124.94999694824219,126.30000305175781,124.16999816894531,124.73999786376953,303100,0.0,0.0
