Date,Open,High,Low,Close,Volume,Dividends,Stock Splits
2024-01-22 00:00:00-05:00,127.77055935150626,128.65880749773294,127.4386913278599,128.0536346435547,266200,0.0,0.0
2024-01-23 00:00:00-05:00,128.64906312745666,128.6978707572989,127.21420519528036,128.6783447265625,217800,0.0,0.0
2024-01-24 00:00:00-05:00,128.96140343885114,129.127337462916,127.41917469907531,127.6534423828125,294400,0.0,0.0
2024-01-25 00:00:00-05:00,128.87354917469125,129.215187659959,127.26300178756317,128.11219787597656,332300,0.0,0.0
2024-01-26 00:00:00-05:00,128.53192660525798,129.42017486174706,128.2586217407995,128.55145263671875,219900,0.0,0.0
2024-01-29 00:00:00-05:00,127.91699396059559,129.4201706663894,127.37038424939784,129.0883026123047,187800,0.0,0.0
2024-01-30 00:00:00-05:00,128.87356095519164,129.9082171791013,128.48312970262114,129.0883026123047,228400,0.0,0.0
2024-01-31 00:00:00-05:00,129.6072404814495,129.99890086291595,126.46424622437948,127.16921997070312,537500,0.41,0.0
2024-02-01 00:00:00-05:00,127.73709418537841,128.37352165205215,126.9048290917466,127.77625274658203,298800,0.0,0.0
2024-02-02 00:00:00-05:00,127.2475661410704,127.98191262980153,126.00406857019675,127.3846435546875,344800,0.0,0.0
2024-02-05 00:00:00-05:00,126.43485419071864,128.70642429390594,125.37739373325928,127.9231185913086,319500,0.0,0.0
2024-02-06 00:00:00-05:00,127.75670012319672,128.65749667464104,126.60133550514335,128.3931427001953,369700,0.0,0.0
2024-02-07 00:00:00-05:00,128.66728901474832,129.65620349228317,126.66985836466682,129.0491485595703,393000,0.0,0.0
2024-02-08 00:00:00-05:00,128.892510168542,132.02571923191917,128.79459131580677,129.36248779296875,620700,0.0,0.0
2024-02-09 00:00:00-05:00,129.35264219518214,136.30445920258973,128.76515923049809,136.05967712402344,650900,0.0,0.0
2024-02-12 00:00:00-05:00,136.25552137822632,137.53817728260378,134.63995043963598,134.7378692626953,491300,0.0,0.0
2024-02-13 00:00:00-05:00,133.8370885700035,134.46373026630343,132.16277211721646,133.0929412841797,275900,0.0,0.0
2024-02-14 00:00:00-05:00,133.4160421044983,134.59100823977994,132.3487956405887,134.3070526123047,335000,0.0,0.0
2024-02-15 00:00:00-05:00,134.30706041780414,134.93370208755908,131.76133517081288,132.2215118408203,471400,0.0,0.0
2024-02-16 00:00:00-05:00,132.5446241819452,135.11973699396307,132.22150997455657,134.6301727294922,453900,0.0,0.0
2024-02-20 00:00:00-05:00,134.27767922539462,137.21506466705296,134.0916424236392,136.7744598388672,373000,0.0,0.0
2024-02-21 00:00:00-05:00,136.17720641755898,137.1857076724592,136.08908842992304,137.0780029296875,276300,0.0,0.0
2024-02-22 00:00:00-05:00,137.53817501361547,139.4474725092563,137.14652960846874,138.51730346679688,295700,0.0,0.0
2024-02-23 00:00:00-05:00,139.00687592300707,139.0852079967368,137.66547464363427,138.40960693359375,190300,0.0,0.0
2024-02-26 00:00:00-05:00,138.54668407865975,139.09499365346758,137.86129711014996,138.95791625976562,199200,0.0,0.0
2024-02-27 00:00:00-05:00,138.957912963263,139.2124809911517,136.8821653535005,137.3815155029297,244600,0.0,0.0
2024-02-28 00:00:00-05:00,136.73526878204999,138.2920942209378,136.42195547745305,137.4794158935547,189600,0.0,0.0
2024-02-29 00:00:00-05:00,137.69484665972422,138.67397516629342,136.91154086640583,137.5283966064453,250600,0.0,0.0
2024-03-01 00:00:00-05:00,136.96050712345004,137.85150275430968,136.64717881434012,137.3619384765625,151400,0.0,0.0
2024-03-04 00:00:00-05:00,137.75358821860885,139.1537347734235,137.6262967353294,138.99708557128906,260300,0.0,0.0
2024-03-05 00:00:00-05:00,139.30061277790898,140.2209959378747,138.78167587968406,139.54539489746094,190200,0.0,0.0
2024-03-06 00:00:00-05:00,139.94683100550336,140.64201882254702,139.50622616330278,140.08392333984375,184000,0.0,0.0
2024-03-07 00:00:00-05:00,141.48407236579914,142.11071402641565,140.83784395132457,141.6309356689453,250100,0.0,0.0
2024-03-08 00:00:00-05:00,141.689698773596,142.04218564853537,139.98600972133647,140.10350036621094,185200,0.0,0.0
2024-03-11 00:00:00-04:00,139.80976295804984,140.38746017321108,139.01667120100592,139.7608184814453,226700,0.0,0.0
2024-03-12 00:00:00-04:00,139.81954259501805,139.86850200451187,138.52708589788867,139.43768310546875,242200,0.0,0.0
2024-03-13 00:00:00-04:00,140.0153529400192,140.0153529400192,137.9885501002366,138.21376037597656,336800,0.0,0.0
2024-03-14 00:00:00-04:00,138.40961949274333,138.6641875502277,137.43049089274948,137.98858642578125,235200,0.0,0.0
2024-03-15 00:00:00-04:00,137.11714374676103,139.4376883696111,136.82341715933737,138.05711364746094,599500,0.0,0.0
2024-03-18 00:00:00-04:00,137.98858225073275,138.3508699811843,136.030325109995,136.3534393310547,299700,0.0,0.0
2024-03-19 00:00:00-04:00,135.98137998820624,137.3913275132948,135.98137998820624,136.5982208251953,253000,0.0,0.0
2024-03-20 00:00:00-04:00,136.7157296262476,137.14654859574253,136.2359512392525,137.0486297607422,220000,0.0,0.0
2024-03-21 00:00:00-04:00,137.38152014458856,138.64460430098922,136.39260571866635,138.19419860839844,255800,0.0,0.0
2024-03-22 00:00:00-04:00,139.04602830613464,139.4768472223314,138.1060733438097,138.63479614257812,276000,0.0,0.0
2024-03-25 00:00:00-04:00,138.25293589235656,141.0434579861113,138.22356323371196,139.97621154785156,316300,0.0,0.0
2024-03-26 00:00:00-04:00,139.84893935807014,141.29804549891884,139.64331577887884,140.21121215820312,314200,0.0,0.0
2024-03-27 00:00:00-04:00,140.6713892220077,142.12049521274304,140.6713892220077,141.64073181152344,218200,0.0,0.0
2024-03-28 00:00:00-04:00,141.79742300543492,142.3163600120605,140.65182929915187,140.88682556152344,247800,0.0,0.0
2024-04-01 00:00:00-04:00,140.78886778891064,140.78886778891064,139.15372513369473,139.32017517089844,204400,0.0,0.0
2024-04-02 00:00:00-04:00,138.87959193219197,138.87959193219197,137.4598585024541,137.69485473632812,202600,0.0,0.0
2024-04-03 00:00:00-04:00,137.7340126592537,138.243163693435,136.95070682366313,137.93963623046875,258700,0.0,0.0
2024-04-04 00:00:00-04:00,138.8697901989138,139.77058658229822,138.02773913222396,138.7914581298828,403600,0.0,0.0
2024-04-05 00:00:00-04:00,138.42919508534143,139.78038228496015,138.00816205233073,138.77188110351562,288300,0.0,0.0
2024-04-08 00:00:00-04:00,138.7131395022946,139.40832734461233,137.45985615698365,137.5773468017578,312500,0.0,0.0
2024-04-09 00:00:00-04:00,137.4892202340201,138.15503537357404,136.45134642913885,137.3815155029297,242600,0.0,0.0
2024-04-10 00:00:00-04:00,136.0792616368699,137.2933862384149,135.56032477708936,136.49049377441406,200700,0.0,0.0
2024-04-11 00:00:00-04:00,136.3534270559702,137.11714607687958,135.56033537581934,136.2261505126953,265300,0.0,0.0
2024-04-12 00:00:00-04:00,135.2861816113603,136.04990063800145,133.12231601598205,134.33642578125,299200,0.0,0.0
2024-04-15 00:00:00-04:00,135.71701332081525,136.8919646309111,134.9532942222371,135.31556701660156,319600,0.0,0.0
2024-04-16 00:00:00-04:00,134.91409723689657,136.4807086713066,134.49307919133327,135.69740295410156,281700,0.0,0.0
2024-04-17 00:00:00-04:00,135.9813755097354,136.56884366563017,135.46243858221953,135.51138305664062,565400,0.0,0.0
2024-04-18 00:00:00-04:00,135.50158455374626,136.52967240638696,135.33513451136662,136.20655822753906,246600,0.0,0.0
2024-04-19 00:00:00-04:00,136.15759268021836,136.99964370038788,135.87365201844295,136.43174743652344,276600,0.0,0.0
2024-04-22 00:00:00-04:00,136.6373785536885,138.20397511372053,136.34363702983424,137.3913116455078,298800,0.0,0.0
2024-04-23 00:00:00-04:00,136.8527948444517,138.2137828639888,136.60801271906504,137.224853515625,417200,0.0,0.0
2024-04-24 00:00:00-04:00,137.43107255657495,138.3639707514258,137.12665456517468,137.489990234375,559200,0.41,0.0
2024-04-25 00:00:00-04:00,137.32307501759382,138.70770061640374,136.41963550902244,137.65695190429688,694400,0.0,0.0
2024-04-26 00:00:00-04:00,139.44418065051858,145.83700353816025,139.3459745296398,140.750244140625,489500,0.0,0.0
2024-04-29 00:00:00-04:00,142.29198855245357,145.35584293066114,141.77152903959532,143.745361328125,676700,0.0,0.0
2024-04-30 00:00:00-04:00,143.1168638170859,143.47038485718338,141.46709396858128,141.78134155273438,585100,0.0,0.0
2024-05-01 00:00:00-04:00,142.3804019748069,144.56044648969018,141.9777777661677,142.7633819580078,359600,0.0,0.0
2024-05-02 00:00:00-04:00,143.13650107704495,144.0890435167018,142.6749592770401,143.2936248779297,356500,0.0,0.0
2024-05-03 00:00:00-04:00,144.46222120377251,144.4818654266077,142.23307391275765,144.16761779785156,303300,0.0,0.0
2024-05-06 00:00:00-04:00,145.10050718187043,146.39675609462375,144.51131539037863,146.3574676513672,260200,0.0,0.0
2024-05-07 00:00:00-04:00,145.65042707406778,147.6733471749605,145.65042707406778,147.0252227783203,392900,0.0,0.0
2024-05-08 00:00:00-04:00,147.02525503308627,148.15455068188786,146.78956929601648,148.07598876953125,223500,0.0,0.0
2024-05-09 00:00:00-04:00,148.28219977529417,148.99905654553297,145.9548614346765,146.39675903320312,299100,0.0,0.0
2024-05-10 00:00:00-04:00,146.26907972689006,146.31818278505722,145.42455807252307,145.81736755371094,186300,0.0,0.0
2024-05-13 00:00:00-04:00,145.85666638873835,146.78956471964034,144.21672585282275,145.2085418701172,167500,0.0,0.0
2024-05-14 00:00:00-04:00,145.6307855571166,145.64060017513293,144.81572273727193,145.23797607421875,137600,0.0,0.0
2024-05-15 00:00:00-04:00,145.29691906696215,145.6700693720631,144.12833512148518,144.629150390625,211100,0.0,0.0
2024-05-16 00:00:00-04:00,144.71753727300873,145.2379968009917,143.79445358665347,144.8844757080078,235500,0.0,0.0
2024-05-17 00:00:00-04:00,145.18889876375104,145.50313138921572,144.4818566262671,145.0121307373047,169500,0.0,0.0
2024-05-20 00:00:00-04:00,144.9335655105072,145.73881375356336,144.39346180896348,145.5031280517578,163400,0.0,0.0
2024-05-21 00:00:00-04:00,145.27729344529214,146.00396491110158,144.44258623904048,145.91558837890625,280400,0.0,0.0
2024-05-22 00:00:00-04:00,145.40492664815366,146.15124217495384,144.8157199273145,146.11195373535156,283300,0.0,0.0
2024-05-23 00:00:00-04:00,145.98434785356432,146.26912169800895,144.90414020052495,145.06126403808594,171700,0.0,0.0
2024-05-24 00:00:00-04:00,145.80755573142952,146.15126219636196,144.70771901828797,145.42457580566406,162300,0.0,0.0
2024-05-28 00:00:00-04:00,144.96303734838673,145.120161163679,143.19544687087972,144.06942749023438,318400,0.0,0.0
2024-05-29 00:00:00-04:00,143.02848138876212,144.05958573644386,141.9090005214892,142.23306274414062,229700,0.0,0.0
2024-05-30 00:00:00-04:00,142.5178278144824,144.3345209020352,142.3901628735305,143.5096435546875,328100,0.0,0.0
2024-05-31 00:00:00-04:00,143.46057587927072,145.1692636494111,143.29363744524605,145.0317840576172,358900,0.0,0.0
2024-06-03 00:00:00-04:00,145.82717820341358,145.82717820341358,143.64713434063063,145.49330139160156,266200,0.0,0.0
2024-06-04 00:00:00-04:00,144.99247705270236,145.71916336439762,144.05957887178732,145.52276611328125,287900,0.0,0.0
2024-06-05 00:00:00-04:00,145.06124737101146,145.53260384538314,144.4327670771318,145.2576446533203,229200,0.0,0.0
2024-06-06 00:00:00-04:00,145.3460224094004,145.3460224094004,142.78299814563564,143.3329315185547,197600,0.0,0.0
2024-06-07 00:00:00-04:00,143.14632406296613,143.69624235649312,142.83207647572232,142.93028259277344,179100,0.0,0.0
2024-06-10 00:00:00-04:00,142.22325833755693,143.18561547188932,141.39838079384342,142.96957397460938,125800,0.0,0.0
2024-06-11 00:00:00-04:00,142.30181787355684,143.11688078441608,141.7518995202425,142.88119506835938,147700,0.0,0.0
2024-06-12 00:00:00-04:00,143.60788538736784,143.6766176913387,141.47694421784456,143.20526123046875,221300,0.0,0.0
2024-06-13 00:00:00-04:00,143.26417891505852,143.89265919093566,142.40984252020334,143.20526123046875,232400,0.0,0.0
2024-06-14 00:00:00-04:00,142.47857596813694,142.76336475814304,141.09395043255316,142.1446990966797,141500,0.0,0.0
2024-06-17 00:00:00-04:00,142.262529988864,144.03995002502072,141.96794157282253,143.69625854492188,303800,0.0,0.0
2024-06-18 00:00:00-04:00,143.8435473023559,145.03177547725338,143.83373268357687,144.04977416992188,219900,0.0,0.0
2024-06-20 00:00:00-04:00,144.02029966547474,144.87463591500543,143.0481130826594,143.1855926513672,199900,0.0,0.0
2024-06-21 00:00:00-04:00,143.24452187818218,144.49166769899176,142.69460355900168,144.20689392089844,444100,0.0,0.0
2024-06-24 00:00:00-04:00,144.57022425452078,145.56204011607758,144.0301205738117,144.0792236328125,182900,0.0,0.0
2024-06-25 00:00:00-04:00,144.14797147628255,144.15780107963286,141.89919497932542,142.25271606445312,194500,0.0,0.0
2024-06-26 00:00:00-04:00,141.65368719367086,142.18396130140425,140.38691211266018,141.1234130859375,192400,0.0,0.0
2024-06-27 00:00:00-04:00,141.28053283691406,141.29036244050806,139.7093396295116,141.28053283691406,377300,0.0,0.0
2024-06-28 00:00:00-04:00,141.1921493835531,141.72243849045483,137.5685620949453,138.27560424804688,435100,0.0,0.0
2024-07-01 00:00:00-04:00,138.83535828747213,138.933549433841,135.89916880106614,136.0464630126953,306400,0.0,0.0
2024-07-02 00:00:00-04:00,135.98751491433367,137.97116143082235,135.28047288834065,137.87295532226562,259400,0.0,0.0
2024-07-03 00:00:00-04:00,138.34434581557062,138.85497569514482,138.03992781470706,138.67822265625,143300,0.0,0.0
2024-07-05 00:00:00-04:00,138.45237466307032,138.89427227033218,137.2150433817555,138.36398315429688,207000,0.0,0.0
2024-07-08 00:00:00-04:00,139.10046174415234,139.9351687443572,138.95316756018627,138.96298217773438,249300,0.0,0.0
2024-07-09 00:00:00-04:00,138.32471855963942,138.72734273203724,137.23469640031377,137.51947021484375,238400,0.0,0.0
2024-07-10 00:00:00-04:00,138.21667416700603,139.08084005086445,138.03992113666214,138.7469482421875,142000,0.0,0.0
2024-07-11 00:00:00-04:00,138.65858169111584,140.72079043155156,138.21668409935128,139.53256225585938,244500,0.0,0.0
2024-07-12 00:00:00-04:00,140.82882488188596,142.87138959940572,140.82882488188596,141.98757934570312,263900,0.0,0.0
2024-07-15 00:00:00-04:00,142.1545133309416,143.06778239939624,140.56367590194864,140.84844970703125,319900,0.0,0.0
2024-07-16 00:00:00-04:00,141.2609020474861,142.68480102686743,141.2609020474861,141.95811462402344,178800,0.0,0.0
2024-07-17 00:00:00-04:00,141.742071167235,143.14634088854694,141.742071167235,142.25271606445312,242300,0.0,0.0
2024-07-18 00:00:00-04:00,142.0072153112255,144.59969826651894,141.99740069205538,143.64715576171875,434200,0.0,0.0
2024-07-19 00:00:00-04:00,143.95157307665585,143.95157307665585,142.056317679659,143.3132781982422,251200,0.0,0.0
2024-07-22 00:00:00-04:00,143.36237293963097,144.90410716476552,142.63568659469945,144.540771484375,235700,0.0,0.0
2024-07-23 00:00:00-04:00,145.20853274870527,145.837013004333,143.04813280649452,143.41146850585938,234500,0.0,0.0
2024-07-24 00:00:00-04:00,143.4409553566542,143.99087375724542,141.30999907813435,141.54568481445312,250600,0.0,0.0
2024-07-25 00:00:00-04:00,140.69850870933138,141.9003035015735,139.11253460029565,139.37850952148438,558100,0.45,0.0
2024-07-26 00:00:00-04:00,140.99403954017995,149.03225436821083,140.2256808803761,144.4713592529297,562800,0.0,0.0
2024-07-29 00:00:00-04:00,144.39255026819245,146.13614030567112,143.0035884581488,145.59434509277344,390900,0.0,0.0
2024-07-30 00:00:00-04:00,145.18060039162737,145.69282942338756,143.23999820328214,143.57492065429688,411000,0.0,0.0
2024-07-31 00:00:00-04:00,144.3137426899674,146.62867904588964,143.24001264874315,144.7865753173828,280600,0.0,0.0
2024-08-01 00:00:00-04:00,144.68805994790043,147.3083523550759,143.25968681226828,144.8358154296875,335300,0.0,0.0
2024-08-02 00:00:00-04:00,144.39254100485536,144.8062714051408,141.6047722074081,143.5158233642578,213500,0.0,0.0
2024-08-05 00:00:00-04:00,141.28954256509508,141.28954256509508,137.3984926421392,138.58058166503906,448500,0.0,0.0
2024-08-06 00:00:00-04:00,139.22088397719236,143.9098433940362,139.00416591290647,142.76715087890625,476000,0.0,0.0
2024-08-07 00:00:00-04:00,143.83102383021938,145.06236953634746,141.3289359690404,141.45700073242188,353600,0.0,0.0
2024-08-08 00:00:00-04:00,142.3041810393727,143.97880835659416,142.3041810393727,143.38775634765625,268600,0.0,0.0
2024-08-09 00:00:00-04:00,143.2399915159674,143.2399915159674,141.32894051363255,141.80177307128906,263200,0.0,0.0
2024-08-12 00:00:00-04:00,141.82150185638116,142.02835955787225,140.63941275462523,141.15164184570312,221100,0.0,0.0
2024-08-13 00:00:00-04:00,141.36834859273043,143.1316442630569,140.9644785785287,142.21551513671875,212000,0.0,0.0
2024-08-14 00:00:00-04:00,141.97911142530356,142.64895637508786,141.3486629303569,141.75253295898438,115700,0.0,0.0
2024-08-15 00:00:00-04:00,142.8361176308303,145.14119343893137,142.8361176308303,144.8161163330078,277500,0.0,0.0
2024-08-16 00:00:00-04:00,143.92954395140833,144.64864566732285,143.43700564687694,144.5304412841797,250600,0.0,0.0
2024-08-19 00:00:00-04:00,144.1364243221197,145.52537099118265,143.742384638883,144.77671813964844,191200,0.0,0.0
2024-08-20 00:00:00-04:00,144.78657769172244,146.0967315836786,144.78657769172244,145.89971923828125,387200,0.0,0.0
2024-08-21 00:00:00-04:00,145.958824056326,147.33794056099657,145.25942796296113,147.1015167236328,267300,0.0,0.0
2024-08-22 00:00:00-04:00,147.3379326065185,148.1555330588853,146.45135453757797,146.76658630371094,200400,0.0,0.0
2024-08-23 00:00:00-04:00,147.4265876389192,148.2835995876764,147.20986955492205,148.1949462890625,221400,0.0,0.0
2024-08-26 00:00:00-04:00,148.4313421940693,150.39165013594368,147.89940741750647,147.9191131591797,235500,0.0,0.0
2024-08-27 00:00:00-04:00,147.77134462433034,149.27851071438698,147.60388339555485,148.94358825683594,208300,0.0,0.0
2024-08-28 00:00:00-04:00,148.67762127976994,149.7021094800826,148.67762127976994,149.2785186767578,249000,0.0,0.0
2024-08-29 00:00:00-04:00,150.27345172103225,150.6280799298619,148.95345256691851,150.00747680664062,187100,0.0,0.0
2024-08-30 00:00:00-04:00,149.9286688147789,151.15016931833227,149.377028274812,150.90390014648438,178500,0.0,0.0
2024-09-03 00:00:00-04:00,149.84000386066862,150.10597875426933,147.4955167171667,147.80088806152344,362400,0.0,0.0
2024-09-04 00:00:00-04:00,147.36747963450603,148.64806731357916,147.36747963450603,148.48060607910156,175800,0.0,0.0
2024-09-05 00:00:00-04:00,148.82537708469354,149.49522196926762,147.71223569765428,148.4707489013672,200600,0.0,0.0
2024-09-06 00:00:00-04:00,148.13583421192192,150.83493466359408,148.13583421192192,150.10598754882812,319100,0.0,0.0
2024-09-09 00:00:00-04:00,150.2931596017108,150.77583756568123,149.18001811878258,149.64300537109375,241500,0.0,0.0
2024-09-10 00:00:00-04:00,149.60359060845036,150.5098593504834,149.18001485089158,149.24896240234375,158100,0.0,0.0
2024-09-11 00:00:00-04:00,148.53968664763514,148.62835496092356,146.41193271914398,148.5889434814453,178000,0.0,0.0
2024-09-12 00:00:00-04:00,148.63823661809067,149.74151781573806,147.7319677727262,149.69227600097656,200400,0.0,0.0
2024-09-13 00:00:00-04:00,149.91882351220255,150.72657857998954,149.63314285535446,150.00747680664062,138600,0.0,0.0
2024-09-16 00:00:00-04:00,150.75612046862636,150.88418524015407,149.80060996848025,150.70687866210938,182900,0.0,0.0
2024-09-17 00:00:00-04:00,151.70181775324176,153.2483954478514,149.60359948995645,150.7462921142578,259900,0.0,0.0
2024-09-18 00:00:00-04:00,151.4653805712622,153.16957400127043,150.43106211172218,150.7856903076172,214200,0.0,0.0
2024-09-19 00:00:00-04:00,152.70658361013284,156.44001742950928,152.70658361013284,154.5585174560547,412400,0.0,0.0
2024-09-20 00:00:00-04:00,153.97732236069467,153.97732236069467,152.17463036234477,153.5832977294922,663300,0.0,0.0
2024-09-23 00:00:00-04:00,153.83942604845143,154.5683882158064,152.43077358591063,153.632568359375,315800,0.0,0.0
2024-09-24 00:00:00-04:00,153.8492602560699,154.7358382382443,153.70150477457904,154.2925567626953,246200,0.0,0.0
2024-09-25 00:00:00-04:00,154.95258354672498,155.51406950620333,153.54391590746832,154.7949676513672,284100,0.0,0.0
2024-09-26 00:00:00-04:00,155.58299761518848,156.68627857601442,155.34657382455046,156.0164337158203,371600,0.0,0.0
2024-09-27 00:00:00-04:00,156.31195688011874,159.1391371097761,155.89822648747847,157.50390625,354300,0.0,0.0
2024-09-30 00:00:00-04:00,156.91286043073308,158.02600190814087,156.5582322186168,157.7994384765625,289800,0.0,0.0
2024-10-01 00:00:00-04:00,158.1442037876368,158.1442037876368,156.6764491525247,157.5827178955078,192200,0.0,0.0
2024-10-02 00:00:00-04:00,157.47435610844042,157.72062527444066,155.60271645926937,156.38092041015625,186900,0.0,0.0
2024-10-03 00:00:00-04:00,155.6322800757233,158.06542083401308,154.30242045991758,156.56809997558594,367000,0.0,0.0
2024-10-04 00:00:00-04:00,157.5531605590218,159.06032661910723,156.9522632060345,158.18360900878906,350500,0.0,0.0
2024-10-07 00:00:00-04:00,157.01137380033816,157.25764297406545,155.6519631514186,156.3218231201172,223300,0.0,0.0
2024-10-08 00:00:00-04:00,155.91794469733082,156.6469068937468,154.75556136283095,156.3021240234375,205900,0.0,0.0
2024-10-09 00:00:00-04:00,155.98691258096287,157.66154008416618,155.76033410142955,157.31675720214844,152600,0.0,0.0
2024-10-10 00:00:00-04:00,155.6913647318979,157.00151845650754,155.6913647318979,156.84390258789062,168500,0.0,0.0
2024-10-11 00:00:00-04:00,158.53824750541833,159.5036184688207,157.95705585620203,159.13914489746094,194400,0.0,0.0
2024-10-14 00:00:00-04:00,162.5278110606361,165.25646271264634,161.02064490362383,164.69497680664062,469700,0.0,0.0
2024-10-15 00:00:00-04:00,164.82304506735403,167.1281209995481,164.00542958075638,166.16273498535156,397300,0.0,0.0
2024-10-16 00:00:00-04:00,166.18244150078093,166.6749798662433,163.4439293912965,163.5621337890625,330000,0.0,0.0
2024-10-17 00:00:00-04:00,164.488098107437,165.8081122685309,164.03497125675165,165.384521484375,238200,0.0,0.0
2024-10-18 00:00:00-04:00,166.57648214165218,166.57648214165218,165.2761736346556,166.11349487304688,171500,0.0,0.0
2024-10-21 00:00:00-04:00,165.95588782362094,165.97559356810046,163.81827299549988,163.8478240966797,217900,0.0,0.0
2024-10-22 00:00:00-04:00,163.24691799022813,163.88721185658056,162.3504945524722,163.3355712890625,228500,0.0,0.0
2024-10-23 00:00:00-04:00,164.02511497624792,165.47317891952764,163.68034715184834,165.14810180664062,318100,0.0,0.0
2024-10-24 00:00:00-04:00,166.25437089703468,166.26424275049317,164.1109880455168,164.50608825683594,547300,0.45,0.0
2024-10-25 00:00:00-04:00,166.84699953906053,167.76559434792017,162.58989458720737,166.83712768554688,518900,0.0,0.0
2024-10-28 00:00:00-04:00,167.81498113361118,169.30646005905672,166.688971816726,167.02481079101562,350000,0.0,0.0
2024-10-29 00:00:00-04:00,166.955651734335,167.41001321614593,165.58271050683078,166.62969970703125,338100,0.0,0.0
2024-10-30 00:00:00-04:00,166.2840101721286,168.11129787803878,166.0568218869867,166.95565795898438,290300,0.0,0.0
2024-10-31 00:00:00-04:00,167.01492280877136,168.190321532517,165.80002159675908,165.8494110107422,329900,0.0,0.0
2024-11-01 00:00:00-04:00,166.0370724645558,168.8916056035141,165.56295220264656,167.33099365234375,316300,0.0,0.0
2024-11-04 00:00:00-05:00,167.54829641250058,168.47676309379327,166.11607883263753,166.19509887695312,191800,0.0,0.0
2024-11-05 00:00:00-05:00,165.6815022887005,168.2693448592814,165.6815022887005,168.21995544433594,206200,0.0,0.0
2024-11-06 00:00:00-05:00,173.00054209288007,173.00054209288007,170.0274864290188,171.03497314453125,264100,0.0,0.0
2024-11-07 00:00:00-05:00,172.0621823960004,173.30672908894968,171.41027842079177,172.56593322753906,412300,0.0,0.0
2024-11-08 00:00:00-05:00,172.55606865304011,175.6575337916526,172.34865422503788,173.60305786132812,309200,0.0,0.0
2024-11-11 00:00:00-05:00,174.15619299950882,175.84519929208736,173.74133401275535,173.98826599121094,189100,0.0,0.0
2024-11-12 00:00:00-05:00,174.48213123535686,175.0649021631757,172.80299678377733,173.54379272460938,179800,0.0,0.0
2024-11-13 00:00:00-05:00,173.3462371826172,174.22531436375897,172.90176266568588,173.3462371826172,168400,0.0,0.0
2024-11-14 00:00:00-05:00,173.00052686770553,173.63267208873035,171.77575397970608,171.9634246826172,198200,0.0,0.0
2024-11-15 00:00:00-05:00,170.84729567742923,171.62759408516817,164.1307429585059,164.4468231201172,620500,0.0,0.0
2024-11-18 00:00:00-05:00,164.3480572551266,165.76051609741364,162.3133400368618,164.64437866210938,384400,0.0,0.0
2024-11-19 00:00:00-05:00,164.3776861785157,165.61234613515475,164.16038482042458,164.85179138183594,287600,0.0,0.0
2024-11-20 00:00:00-05:00,164.95056714712908,166.86676177573253,163.61712839008123,166.65933227539062,221800,0.0,0.0
2024-11-21 00:00:00-05:00,166.61982839227232,168.14092278641004,165.6814898648052,167.79522705078125,205100,0.0,0.0
2024-11-22 00:00:00-05:00,168.0915324425654,169.95835270503898,168.0915324425654,169.40521240234375,241600,0.0,0.0
2024-11-25 00:00:00-05:00,169.93859733485252,171.88442260806409,169.6324040808553,170.38307189941406,270100,0.0,0.0
2024-11-26 00:00:00-05:00,170.7386704273631,170.7386704273631,169.0595357655062,169.92872619628906,140300,0.0,0.0
2024-11-27 00:00:00-05:00,170.5509794809398,171.74613690502596,169.4150983926073,169.6225128173828,167200,0.0,0.0
2024-11-29 00:00:00-05:00,170.47196327119065,171.36092746909895,169.97809929619686,170.83743286132812,117300,0.0,0.0
2024-12-02 00:00:00-05:00,170.8571786767367,170.9855881347097,168.7434414405468,170.63987731933594,170900,0.0,0.0
2024-12-03 00:00:00-05:00,171.32140382396798,171.32140382396798,168.9903653419581,170.28428649902344,160100,0.0,0.0
2024-12-04 00:00:00-05:00,169.78054783121863,170.76827572949122,168.9311012358429,170.47195434570312,173400,0.0,0.0
2024-12-05 00:00:00-05:00,169.89908038553693,170.32381124406317,168.43724722982796,169.00025939941406,245000,0.0,0.0
2024-12-06 00:00:00-05:00,169.49414178557,170.53124419538696,168.7533457376812,169.04965209960938,209200,0.0,0.0
2024-12-09 00:00:00-05:00,169.45460074432523,171.34116470205902,168.1409207928341,168.6940460205078,301700,0.0,0.0
2024-12-10 00:00:00-05:00,168.62490558451546,169.26692268058784,166.1259552433873,168.8125762939453,287000,0.0,0.0
2024-12-11 00:00:00-05:00,169.7706882600862,171.96344555860944,169.6422788011308,170.19540405273438,418600,0.0,0.0
2024-12-12 00:00:00-05:00,169.56324574340024,170.4818405219571,168.68416852065852,169.5336151123047,178300,0.0,0.0
2024-12-13 00:00:00-05:00,168.81257577568644,168.90146766781777,167.7359560024568,168.1112823486328,153200,0.0,0.0
2024-12-16 00:00:00-05:00,168.05203725328025,168.83233572293636,165.5333278998814,165.57284545898438,236100,0.0,0.0
2024-12-17 00:00:00-05:00,164.85178780773057,164.86167473295026,160.84161476695553,161.0885467529297,511900,0.0,0.0
2024-12-18 00:00:00-05:00,161.68119290074782,162.4022300947158,155.97212647235614,156.26844787597656,468600,0.0,0.0
2024-12-19 00:00:00-05:00,156.56476642331307,159.58722689021582,156.28820377743185,156.92034912109375,404700,0.0,0.0
2024-12-20 00:00:00-05:00,156.77216627152492,157.81915538584704,155.53750645340335,156.23878479003906,730200,0.0,0.0
2024-12-23 00:00:00-05:00,155.24122230299713,156.94998768093802,155.03380784388088,156.5746612548828,194900,0.0,0.0
2024-12-24 00:00:00-05:00,156.8314427898795,157.4635880753995,155.98199614950582,157.3944549560547,100500,0.0,0.0
2024-12-26 00:00:00-05:00,156.47585813869574,157.67101557522113,156.47585813869574,156.9005889892578,164500,0.0,0.0
2024-12-27 00:00:00-05:00,155.88323052363847,157.62162627003977,155.6758010250324,156.20916748046875,145000,0.0,0.0
2024-12-30 00:00:00-05:00,155.07328561079504,155.55727772412172,153.0978297431416,154.8065948486328,221700,0.0,0.0
2024-12-31 00:00:00-05:00,155.34985716824414,156.30795452492524,154.2633503498842,155.1720733642578,317100,0.0,0.0
2025-01-02 00:00:00-05:00,155.71530356167833,156.16966504511277,151.56684923199984,152.2681427001953,239400,0.0,0.0
2025-01-03 00:00:00-05:00,152.14961579837612,153.80900668985902,150.99397583701122,153.59170532226562,250700,0.0,0.0
2025-01-06 00:00:00-05:00,152.1100981713301,152.74224343099903,149.58151713265437,151.04335021972656,369000,0.0,0.0
2025-01-07 00:00:00-05:00,154.00653658731684,154.1448178942518,150.72728770648897,151.54708862304688,361200,0.0,0.0
2025-01-08 00:00:00-05:00,151.01372323373394,152.36690568048937,150.22353787218913,152.2582550048828,228600,0.0,0.0
2025-01-10 00:00:00-05:00,150.84582676787906,152.40643887235237,150.7075454457882,151.56686401367188,350800,0.0,0.0
2025-01-13 00:00:00-05:00,151.05322414667478,152.8015067917635,151.05322414667478,152.00144958496094,349300,0.0,0.0
2025-01-14 00:00:00-05:00,152.91017381715557,153.5423191530986,151.5964937294937,152.71263122558594,196900,0.0,0.0
2025-01-15 00:00:00-05:00,154.2040804325051,154.99426579503287,152.278013973022,153.6509552001953,206100,0.0,0.0
2025-01-16 00:00:00-05:00,153.97690156450915,155.24119206944306,153.40401757453412,154.4905242919922,346300,0.0,0.0
2025-01-17 00:00:00-05:00,155.04365916347115,156.01162834471992,153.76948165438378,154.17445373535156,231900,0.0,0.0
2025-01-21 00:00:00-05:00,154.79672624937334,158.29327657715456,154.79672624937334,157.86856079101562,270900,0.0,0.0
2025-01-22 00:00:00-05:00,157.38456509447906,158.77726509600365,156.39683716231107,157.11788940429688,280000,0.0,0.0
2025-01-23 00:00:00-05:00,156.51537982846705,157.84880353713106,155.79432756314424,157.6611328125,149800,0.0,0.0
2025-01-24 00:00:00-05:00,157.6907693395568,158.5007135347565,155.29059753133308,156.3573455810547,329600,0.0,0.0
2025-01-27 00:00:00-05:00,156.3079513540658,156.9697272858119,154.7275805724258,156.515380859375,317000,0.0,0.0
2025-01-28 00:00:00-05:00,155.6363008780896,158.38218338328682,155.6363008780896,156.47586059570312,204300,0.0,0.0
2025-01-29 00:00:00-05:00,156.8314497428212,156.87096730265517,154.69795365778037,155.18194580078125,265800,0.0,0.0
2025-01-30 00:00:00-05:00,155.8832293601482,156.73266091243917,154.6584412995214,156.18942260742188,274200,0.0,0.0
2025-01-31 00:00:00-05:00,155.96223148185186,157.43395149842408,154.8362222635483,155.221435546875,834100,0.0,0.0
2025-02-03 00:00:00-05:00,152.68298284661782,154.8263506127043,152.24838015275108,154.0657958984375,364600,0.0,0.0
2025-02-04 00:00:00-05:00,154.17445161647603,156.51537709930176,154.17445161647603,155.7646942138672,302400,0.0,0.0
2025-02-05 00:00:00-05:00,156.78496957437233,158.15193966050393,156.28969231008264,156.82460021972656,262600,0.45,0.0
2025-02-06 00:00:00-05:00,158.330223321249,158.330223321249,153.90244361820098,154.9722442626953,446600,0.0,0.0
2025-02-07 00:00:00-05:00,156.13120083363538,156.4085548940201,140.69835937805564,141.8275909423828,1221500,0.0,0.0
2025-02-10 00:00:00-05:00,142.89737483931424,143.23417482843493,139.56911139164734,141.9266357421875,621900,0.0,0.0
2025-02-11 00:00:00-05:00,140.92621419386845,141.71866093627426,138.93518967530753,140.94601440429688,377300,0.0,0.0
2025-02-12 00:00:00-05:00,139.63847169913737,142.1346733181671,138.60828653556084,140.361572265625,423500,0.0,0.0
2025-02-13 00:00:00-05:00,141.40164769159654,142.42191756559242,140.12383910196237,141.4214630126953,665900,0.0,0.0
2025-02-14 00:00:00-05:00,142.33277766540417,143.93747110903965,141.37193859702288,143.42237854003906,512800,0.0,0.0
2025-02-18 00:00:00-05:00,143.42238055551567,145.89876682538872,142.54078764802736,145.512451171875,489600,0.0,0.0
2025-02-19 00:00:00-05:00,144.7596300671168,146.09688465141588,144.23463740564512,145.651123046875,331000,0.0,0.0
2025-02-20 00:00:00-05:00,145.58179441241614,146.02754090939567,144.54170917635585,145.29452514648438,283100,0.0,0.0
2025-02-21 00:00:00-05:00,145.6412334671298,145.99783370773258,143.82851683695435,144.95774841308594,451900,0.0,0.0
2025-02-24 00:00:00-05:00,144.79925789610297,145.89877405902692,142.9964564618772,144.23464965820312,353300,0.0,0.0
2025-02-25 00:00:00-05:00,144.50210269437727,146.92895832068604,144.34361033874444,146.3148193359375,336700,0.0,0.0
2025-02-26 00:00:00-05:00,145.26479817411075,147.7708996221253,145.23508275098493,145.25489807128906,735600,0.0,0.0
2025-02-27 00:00:00-05:00,144.8487791930552,145.78980293791258,143.9870016213501,144.25445556640625,262800,0.0,0.0
2025-02-28 00:00:00-05:00,144.7794376039081,145.56196894498265,143.26389055101285,145.36386108398438,348700,0.0,0.0
2025-03-03 00:00:00-05:00,145.581783556318,147.43411547535325,144.31387511451211,145.2053680419922,394100,0.0,0.0
2025-03-04 00:00:00-05:00,144.16530779309892,146.55254797283033,143.76909200457226,144.56153869628906,490100,0.0,0.0
2025-03-05 00:00:00-05:00,144.67049334875352,147.44404907906232,144.67049334875352,147.0379180908203,445100,0.0,0.0
2025-03-06 00:00:00-05:00,146.16621830199009,150.06900541563368,145.67094105639393,149.72230529785156,471700,0.0,0.0
2025-03-07 00:00:00-05:00,149.08835113379365,151.91143748155838,147.77091184581425,151.3369140625,480200,0.0,0.0
2025-03-10 00:00:00-04:00,150.63362836403152,152.54539127234196,148.82091183580206,149.14779663085938,391100,0.0,0.0
2025-03-11 00:00:00-04:00,148.91995850666456,149.13788170379496,145.87896407979193,146.49310302734375,304000,0.0,0.0
2025-03-12 00:00:00-04:00,146.83979727055856,146.83979727055856,144.18510348201886,144.65066528320312,299700,0.0,0.0
2025-03-13 00:00:00-04:00,145.0270937364904,145.80962517214004,142.40211513836567,143.39266967773438,238400,0.0,0.0
2025-03-14 00:00:00-04:00,143.85823362542143,145.50255781235316,143.17474856490986,145.2747344970703,223600,0.0,0.0
2025-03-17 00:00:00-04:00,145.12613370517485,146.60206534485752,144.482279328917,146.44357299804688,225200,0.0,0.0
2025-03-18 00:00:00-04:00,145.99782207785853,146.13649909845384,144.4030287836816,144.91812133789062,219900,0.0,0.0
2025-03-19 00:00:00-04:00,144.9577510070345,146.0671823946863,144.0959733745996,145.59170532226562,279600,0.0,0.0
2025-03-20 00:00:00-04:00,144.74972998932432,146.02753860915917,142.3723901851114,143.82850646972656,332800,0.0,0.0
2025-03-21 00:00:00-04:00,142.63984075733828,144.08605690435675,141.0153320644106,143.4521026611328,601900,0.0,0.0
2025-03-24 00:00:00-04:00,144.37333063502606,146.78037101939145,143.54126841188716,146.59217834472656,463800,0.0,0.0
2025-03-25 00:00:00-04:00,147.08744285003115,147.82044350517103,144.55161063882232,145.8195343017578,325200,0.0,0.0
2025-03-26 00:00:00-04:00,145.66103699900552,147.29544581924438,144.91812115077664,147.15676879882812,630400,0.0,0.0
2025-03-27 00:00:00-04:00,146.87941526042871,148.47420855800183,145.64122217581178,147.93931579589844,312700,0.0,0.0
2025-03-28 00:00:00-04:00,147.8798846759756,148.58318506908776,144.38322826318944,145.54217529296875,239800,0.0,0.0
2025-03-31 00:00:00-04:00,145.1954839412941,147.68177035524897,144.72002200188086,146.97848510742188,372500,0.0,0.0
2025-04-01 00:00:00-04:00,147.47375771063503,148.61288933138113,145.9879259715773,147.69168090820312,240000,0.0,0.0
2025-04-02 00:00:00-04:00,146.60206784824211,149.70250830902188,146.60206784824211,149.10816955566406,247600,0.0,0.0
2025-04-03 00:00:00-04:00,145.37376913897677,148.63270182210968,145.0766148885552,147.26573181152344,352900,0.0,0.0
2025-04-04 00:00:00-04:00,143.8483298002135,146.56245464887016,138.71724948430474,138.85592651367188,531600,0.0,0.0
2025-04-07 00:00:00-04:00,135.05219810762017,140.7776019595379,129.61406352747676,133.37815856933594,629900,0.0,0.0
2025-04-08 00:00:00-04:00,136.08238602968135,137.99414901559882,130.03999735696206,132.39752197265625,473800,0.0,0.0
2025-04-09 00:00:00-04:00,131.92202927052327,143.05586629722916,130.07961257517985,142.39219665527344,491800,0.0,0.0
2025-04-10 00:00:00-04:00,138.67761926024357,142.01578283003076,136.27057926669232,139.43043518066406,309000,0.0,0.0
2025-04-11 00:00:00-04:00,139.5394227040717,143.34316388353207,138.4201062757106,142.7488250732422,203000,0.0,0.0
2025-04-14 00:00:00-04:00,144.42284856795507,145.01717219687393,142.43182435722224,144.41293334960938,249300,0.0,0.0
2025-04-15 00:00:00-04:00,144.7200151159076,145.15584638941246,142.41202137105168,142.58041381835938,250700,0.0,0.0
2025-04-16 00:00:00-04:00,142.699293128613,144.44267889642126,141.22337644933242,143.6304168701172,307700,0.0,0.0
2025-04-17 00:00:00-04:00,144.02661345926595,144.38321367198066,139.38092570524432,142.47145080566406,390600,0.0,0.0
2025-04-21 00:00:00-04:00,141.94647688677207,142.68939283511736,139.7672597945586,141.2332763671875,291600,0.0,0.0
2025-04-22 00:00:00-04:00,143.13513046097071,145.43322423967282,142.23372220563516,144.64077758789062,217800,0.0,0.0
2025-04-23 00:00:00-04:00,146.4732884005367,147.9096045106202,145.82943402438084,146.65159606933594,537000,0.0,0.0
2025-04-24 00:00:00-04:00,146.53271720233386,150.56428119732627,144.08606153836624,150.02938842773438,424500,0.0,0.0
2025-04-25 00:00:00-04:00,149.42515488201633,151.5548410469417,146.1761372765882,147.6520538330078,220500,0.0,0.0
2025-04-28 00:00:00-04:00,148.3850722414695,149.60345008639197,146.87942511742685,148.2860107421875,235200,0.0,0.0
2025-04-29 00:00:00-04:00,148.34543269560234,150.54446483869538,147.60251683954823,148.88034057617188,359900,0.0,0.0
2025-04-30 00:00:00-04:00,147.6619679397673,148.57327627446125,145.8195359480902,148.5336456298828,556200,0.0,0.0
2025-05-01 00:00:00-04:00,147.49043252263488,149.55698945100644,146.01007342098333,147.321533203125,445300,0.45,0.0
2025-05-02 00:00:00-04:00,152.00109276483386,152.01102266813578,146.83469293818283,151.01748657226562,431600,0.0,0.0
2025-05-05 00:00:00-04:00,150.45115939800078,152.22959744819886,149.9047266890984,150.50083923339844,267600,0.0,0.0
2025-05-06 00:00:00-04:00,149.27879067725587,151.05721352633617,148.45415394115105,149.9444580078125,312000,0.0,0.0
2025-05-07 00:00:00-04:00,150.89827616217718,152.16005616446157,149.64641090363295,150.41143798828125,318400,0.0,0.0
2025-05-08 00:00:00-04:00,150.8088240511965,153.57086810201378,150.26239137467758,152.36868286132812,302500,0.0,0.0
2025-05-09 00:00:00-04:00,152.91513158455209,153.30261002368533,151.95140043796184,152.32894897460938,231600,0.0,0.0
2025-05-12 00:00:00-04:00,154.78298382447863,155.57781574408938,152.70649699411595,154.51473999023438,352500,0.0,0.0
2025-05-13 00:00:00-04:00,155.2996205897217,155.2996205897217,152.20972280733352,152.64688110351562,339400,0.0,0.0
2025-05-14 00:00:00-04:00,152.62701534673135,152.62701534673135,149.99415066789234,151.494384765625,350100,0.0,0.0
2025-05-15 00:00:00-04:00,151.36522536472287,154.47498293511407,151.36522536472287,153.9484100341797,278100,0.0,0.0
2025-05-16 00:00:00-04:00,154.1769139151355,156.13418110776666,153.59073129565786,155.99508666992188,278600,0.0,0.0
2025-05-19 00:00:00-04:00,155.34929853126698,157.31649567994577,155.2996186963688,157.0581817626953,185400,0.0,0.0
2025-05-20 00:00:00-04:00,159.2240927799544,159.2240927799544,156.88929199923413,157.50527954101562,388100,0.0,0.0
2025-05-21 00:00:00-04:00,155.84605884611838,156.63094562209463,154.82271797052783,155.43870544433594,319800,0.0,0.0
2025-05-22 00:00:00-04:00,155.34930186196166,156.24347826867125,154.55446996702122,155.63742065429688,278900,0.0,0.0
2025-05-23 00:00:00-04:00,154.11731521461456,155.1704610565874,153.2628735609117,154.93202209472656,260500,0.0,0.0
2025-05-27 00:00:00-04:00,156.01497936059593,157.41586896100623,155.6771807103314,157.13768005371094,352800,0.0,0.0
2025-05-28 00:00:00-04:00,157.13766546061635,157.81326269840386,156.2434739186448,156.382568359375,364400,0.0,0.0
2025-05-29 00:00:00-04:00,156.80981151755603,157.64437824056137,155.8063454691919,157.30657958984375,232100,0.0,0.0
2025-05-30 00:00:00-04:00,157.2171596355886,157.75366246496796,155.52813611904918,157.37611389160156,335100,0.0,0.0
2025-06-02 00:00:00-04:00,156.52166938265543,158.0417935519205,154.25640830397938,155.895751953125,349600,0.0,0.0
2025-06-03 00:00:00-04:00,155.1704542609852,156.42231939656108,154.99162504742128,155.24993896484375,397800,0.0,0.0
2025-06-04 00:00:00-04:00,155.47846034120943,155.5082652095938,149.3185247657197,149.43775939941406,831900,0.0,0.0
2025-06-05 00:00:00-04:00,150.60019679029278,152.34881478658195,148.08655178805842,151.5043182373047,482400,0.0,0.0
2025-06-06 00:00:00-04:00,153.37216133250158,153.48145090878683,151.22613490023483,152.3190155029297,264700,0.0,0.0
2025-06-09 00:00:00-04:00,151.72289703426236,152.18984503093586,150.3816173012118,150.6200714111328,388400,0.0,0.0
2025-06-10 00:00:00-04:00,151.1764638594459,152.01103058500394,149.88486383551546,151.5440673828125,323500,0.0,0.0
2025-06-11 00:00:00-04:00,152.01102435470298,152.59720701933225,150.62007986911524,150.93800354003906,380800,0.0,0.0
2025-06-12 00:00:00-04:00,150.4313114861511,153.6205540247376,150.4313114861511,153.35231018066406,337200,0.0,0.0
2025-06-13 00:00:00-04:00,152.01102517134845,152.72637238496742,149.75569395173977,150.18292236328125,361200,0.0,0.0
2025-06-16 00:00:00-04:00,150.26239971844478,151.91165806232243,150.14316508190436,150.70948791503906,346200,0.0,0.0
2025-06-17 00:00:00-04:00,149.68614833096728,150.28226087841142,148.16603935275657,148.4839630126953,379700,0.0,0.0
2025-06-18 00:00:00-04:00,148.1560928453656,149.7556865130082,148.1560928453656,148.7323455810547,383200,0.0,0.0
2025-06-20 00:00:00-04:00,149.31853088884125,149.7954391228616,148.02694611213587,149.32847595214844,570500,0.0,0.0
2025-06-23 00:00:00-04:00,148.52372049521952,152.94495321084426,148.52372049521952,152.79591369628906,356500,0.0,0.0
2025-06-24 00:00:00-04:00,153.57086880695473,153.57086880695473,152.18983919512854,152.87538146972656,246600,0.0,0.0
2025-06-25 00:00:00-04:00,152.86545791807578,153.53112525522516,151.78250725734722,152.93499755859375,264700,0.0,0.0
2025-06-26 00:00:00-04:00,153.53112514721053,154.574341035503,152.13023567322224,153.4814453125,658200,0.0,0.0
2025-06-27 00:00:00-04:00,153.66028449532695,155.10090869233022,153.23305612343526,154.8127899169922,643100,0.0,0.0
2025-06-30 00:00:00-04:00,155.02143014126432,155.48839330201264,153.6106107560815,155.41883850097656,315500,0.0,0.0
2025-07-01 00:00:00-04:00,155.41883763726284,158.76706444786785,154.95188963926665,157.98216247558594,338300,0.0,0.0
2025-07-02 00:00:00-04:00,157.99210676920643,159.4923407456575,157.62448812214086,159.28370666503906,293500,0.0,0.0
2025-07-03 00:00:00-04:00,159.5618955691631,160.31697750891556,158.7869386635823,159.99903869628906,235100,0.0,0.0
2025-07-07 00:00:00-04:00,159.90962585974881,161.32044524603683,159.51221749972524,159.91957092285156,313900,0.0,0.0
2025-07-08 00:00:00-04:00,159.85995374921617,161.529102294315,158.81675296370705,159.0154571533203,342700,0.0,0.0
2025-07-09 00:00:00-04:00,158.8962139445251,158.97569864811658,157.07805630543982,158.697509765625,252800,0.0,0.0
2025-07-10 00:00:00-04:00,158.16102128058495,159.32345675051914,157.30657958984375,157.30657958984375,361600,0.0,0.0
2025-07-11 00:00:00-04:00,157.5350709161001,157.5350709161001,155.61755364990313,156.87933349609375,292000,0.0,0.0
2025-07-14 00:00:00-04:00,156.12425111054648,157.91261899615117,155.67716292918448,156.54153442382812,276600,0.0,0.0
2025-07-15 00:00:00-04:00,156.72038949096165,156.97870341867736,153.07411383203788,153.1635284423828,254200,0.0,0.0
2025-07-16 00:00:00-04:00,152.92507983223925,154.60415832329446,152.55747631413544,153.9782257080078,261900,0.0,0.0
2025-07-17 00:00:00-04:00,153.7397836825051,155.39898717306704,153.51125946105387,155.0214385986328,397700,0.0,0.0
2025-07-18 00:00:00-04:00,155.83613429526102,156.19380787688712,153.9186018503842,155.36917114257812,243100,0.0,0.0
2025-07-21 00:00:00-04:00,155.40890634740893,155.65729035867128,154.23654109112596,154.44517517089844,205900,0.0,0.0
2025-07-22 00:00:00-04:00,155.10091070494084,158.3299028119182,154.2265941447245,158.14112854003906,449900,0.0,0.0
2025-07-23 00:00:00-04:00,159.0353324921988,160.80382555616052,158.11133602610758,160.61505126953125,450500,0.0,0.0
2025-07-24 00:00:00-04:00,160.36596689139284,163.67370617715738,159.20027152118774,161.22279357910156,431900,0.45,0.0
2025-07-25 00:00:00-04:00,161.4519443159114,162.48809942211037,160.1866270976646,160.39585876464844,296300,0.0,0.0
2025-07-28 00:00:00-04:00,160.60507716525916,161.3821973048954,157.5763031854557,158.1143035888672,308500,0.0,0.0
2025-07-29 00:00:00-04:00,158.46301837287766,159.01099160157025,156.63977028603261,158.23387145996094,388200,0.0,0.0
2025-07-30 00:00:00-04:00,158.2139411794794,158.34345106823227,154.34825571028387,156.2113494873047,580700,0.0,0.0
2025-07-31 00:00:00-04:00,155.20507720090802,156.76929025695372,154.60728547959022,156.56005859375,679700,0.0,0.0
2025-08-01 00:00:00-04:00,156.3906864594005,157.5364361790711,140.5692884515745,140.82833862304688,1012300,0.0,0.0
2025-08-04 00:00:00-04:00,142.59179613946068,142.59179613946068,136.57409406621255,138.6165313720703,839000,0.0,0.0
2025-08-05 00:00:00-04:00,138.82574228984998,140.549368424906,137.1818379302022,139.70249938964844,540800,0.0,0.0
2025-08-06 00:00:00-04:00,139.79217373051944,140.2405099336514,137.04236517583132,138.02870178222656,515300,0.0,0.0
2025-08-07 00:00:00-04:00,139.28405592850498,140.9678212320078,138.3973411784471,139.9715118408203,564000,0.0,0.0
2025-08-08 00:00:00-04:00,140.1707689136227,141.5257502766756,140.06117427387304,140.2305450439453,428700,0.0,0.0
2025-08-11 00:00:00-04:00,140.80840868971592,141.09733172532074,138.68626481251795,139.35379028320312,349500,0.0,0.0
2025-08-12 00:00:00-04:00,139.7024996187182,140.56928389677475,138.71614787982762,138.96522521972656,286100,0.0,0.0
2025-08-13 00:00:00-04:00,139.17446660105043,140.91800810219684,138.73608801979466,140.9080352783203,729900,0.0,0.0
2025-08-14 00:00:00-04:00,139.67261570690306,139.67261570690306,135.9364554973346,137.82943725585938,875800,0.0,0.0
2025-08-15 00:00:00-04:00,137.84936634538602,138.43718523065303,137.36116927657673,138.20803833007812,770500,0.0,0.0
2025-08-18 00:00:00-04:00,138.37741292257056,139.0549112245806,136.84310312496342,137.381103515625,529500,0.0,0.0
2025-08-19 00:00:00-04:00,137.75970856476783,140.00140477286192,137.75970856476783,139.0748291015625,333100,0.0,0.0
2025-08-20 00:00:00-04:00,139.393648840335,140.72869975936982,138.74603862261242,140.65895080566406,519200,0.0,0.0
2025-08-21 00:00:00-04:00,140.1109987995753,141.3763008190009,139.72243873331917,140.12095642089844,270400,0.0,0.0
2025-08-22 00:00:00-04:00,140.73866449964885,142.801032315336,140.66893074489022,140.9080352783203,356500,0.0,0.0
2025-08-25 00:00:00-04:00,140.44973703337416,141.08737443990944,138.4471606165544,139.04493713378906,245800,0.0,0.0
2025-08-26 00:00:00-04:00,138.55675954638778,139.64273317507582,137.50065878188727,139.19439697265625,442900,0.0,0.0
2025-08-27 00:00:00-04:00,138.57667015211817,140.05121900303388,138.51689402079253,138.92538452148438,729100,0.0,0.0
2025-08-28 00:00:00-04:00,139.65268569461995,139.65268569461995,136.89290442125153,138.37741088867188,320800,0.0,0.0
2025-08-29 00:00:00-04:00,138.65637494364685,139.35378847092917,137.83940915525176,138.75601196289062,370700,0.0,0.0
2025-09-02 00:00:00-04:00,136.91283746702226,138.0187415215873,135.6674507029839,135.9065704345703,310600,0.0,0.0
2025-09-03 00:00:00-04:00,135.57778924348088,135.6774110651314,133.94384238415293,134.72096252441406,382300,0.0,0.0
2025-09-04 00:00:00-04:00,135.8467917014058,137.96892036901434,134.5416136276031,137.94900512695312,401800,0.0,0.0
2025-09-05 00:00:00-04:00,138.5069313024626,140.30029118860833,137.1220619019756,138.1083984375,440800,0.0,0.0
2025-09-08 00:00:00-04:00,138.0785196018611,139.48331954010914,137.1718743762563,137.7895965576172,616100,0.0,0.0
2025-09-09 00:00:00-04:00,137.74973055841448,138.9652292283821,134.60140444515423,136.54420471191406,637100,0.0,0.0
2025-09-10 00:00:00-04:00,135.6276095966407,136.95270298263142,134.3523347233892,135.74716186523438,685100,0.0,0.0
2025-09-11 00:00:00-04:00,136.2453102876287,137.76966245161407,135.3685531518816,136.59402465820312,477500,0.0,0.0
2025-09-12 00:00:00-04:00,136.11578066498313,136.54420159748256,134.7209536341175,134.7309112548828,261300,0.0,0.0
2025-09-15 00:00:00-04:00,135.46818707582165,135.66744591053393,134.13313616052721,134.35232543945312,298000,0.0,0.0
2025-09-16 00:00:00-04:00,134.29253521558843,134.92021499246542,133.6050945105264,134.71099853515625,474800,0.0,0.0
2025-09-17 00:00:00-04:00,134.9202234437148,136.56414315220525,133.69476708100424,134.15306091308594,377400,0.0,0.0
2025-09-18 00:00:00-04:00,134.40213401806383,135.00988336938318,133.57521058169633,134.0036163330078,254800,0.0,0.0
2025-09-19 00:00:00-04:00,134.16302167221522,134.6014002217238,132.8478860236895,133.94383239746094,877200,0.0,0.0
2025-09-22 00:00:00-04:00,133.62500584924183,134.44198681766053,132.18036032475496,132.2301788330078,402100,0.0,0.0
2025-09-23 00:00:00-04:00,132.51911249007324,133.45564579146554,131.48295736665602,131.53277587890625,319700,0.0,0.0
2025-09-24 00:00:00-04:00,131.51283362791114,132.8179964383377,130.8552658111778,131.01467895507812,353300,0.0,0.0
2025-09-25 00:00:00-04:00,131.01468707936854,132.0309269316582,129.78923076490094,130.3372039794922,388700,0.0,0.0
2025-09-26 00:00:00-04:00,130.84530934560345,131.9412405140255,130.47667974924482,131.8017578125,274400,0.0,0.0
2025-09-29 00:00:00-04:00,131.9113549736489,132.1903203820378,130.8751999142723,131.78184509277344,540600,0.0,0.0
2025-09-30 00:00:00-04:00,131.22391724742639,133.2663393474204,131.22391724742639,133.16671752929688,310400,0.0,0.0
2025-10-01 00:00:00-04:00,132.83793505008853,133.864132523027,131.8216951983283,133.6449432373047,310100,0.0,0.0
2025-10-02 00:00:00-04:00,133.16671601295707,133.89401760712443,132.46930248413395,132.6884765625,398500,0.0,0.0
2025-10-03 00:00:00-04:00,131.98110050874084,133.08700449280963,131.94123962144647,132.72833251953125,402000,0.0,0.0
2025-10-06 00:00:00-04:00,132.3995623608993,132.70841585837292,130.9250286298273,131.39329528808594,447100,0.0,0.0
2025-10-07 00:00:00-04:00,131.62244210672506,132.02095980591378,129.33092733020055,130.10804748535156,438800,0.0,0.0
2025-10-08 00:00:00-04:00,130.6958618827827,131.5228005222907,129.77925904443626,131.12428283691406,361300,0.0,0.0
2025-10-09 00:00:00-04:00,131.2139490956711,132.34974123954802,129.71948494833435,130.1279754638672,554200,0.0,0.0
2025-10-10 00:00:00-04:00,130.456750166944,131.5227932779699,129.41062229735738,130.44677734375,426000,0.0,0.0
2025-10-13 00:00:00-04:00,130.50657288985758,131.8615542727262,129.67963426919383,129.73941040039062,311400,0.0,0.0
2025-10-14 00:00:00-04:00,129.56007316445456,130.57631305211217,128.56376372233257,129.3209686279297,337400,0.0,0.0
2025-10-15 00:00:00-04:00,129.3209660189343,129.90878492933314,127.38812330781582,127.62724304199219,438300,0.0,0.0
2025-10-16 00:00:00-04:00,127.96597514472943,129.02206062166923,127.37814867651251,128.68331909179688,352700,0.0,0.0
2025-10-17 00:00:00-04:00,128.6833272427598,129.61986052200092,128.3744737575792,128.86265563964844,339700,0.0,0.0
2025-10-20 00:00:00-04:00,129.13165784992026,129.60988209007235,127.54752960271524,129.5202178955078,240500,0.0,0.0
2025-10-21 00:00:00-04:00,130.12796519186372,131.28368768983484,128.64345878313492,130.08811950683594,311600,0.0,0.0
2025-10-22 00:00:00-04:00,130.16782074524266,131.62243919986034,129.5002952524821,129.5800018310547,357500,0.0,0.0
2025-10-23 00:00:00-04:00,129.74000549316406,131.52999877929688,129.66000366210938,130.77000427246094,378600,0.48,0.0
2025-10-24 00:00:00-04:00,130.75,130.88999938964844,128.5399932861328,128.8800048828125,489300,0.0,0.0
2025-10-27 00:00:00-04:00,129.13999938964844,129.89999389648438,128.4499969482422,128.77999877929688,521700,0.0,0.0
2025-10-28 00:00:00-04:00,128.75,129.11000061035156,127.47000122070312,128.10000610351562,413500,0.0,0.0
2025-10-29 00:00:00-04:00,127.27999877929688,127.5,123.41999816894531,124.30999755859375,651100,0.0,0.0
2025-10-30 00:00:00-04:00,124.04000091552734,125.5199966430664,123.04000091552734,124.36000061035156,702600,0.0,0.0
2025-10-31 00:00:00-04:00,115.29000091552734,118.0999984741211,103.2300033569336,116.01000213623047,2758200,0.0,0.0
2025-11-03 00:00:00-05:00,116.08999633789062,116.08999633789062,108.29000091552734,113.12000274658203,1661000,0.0,0.0
2025-11-04 00:00:00-05:00,114.36000061035156,116.0,112.52999877929688,114.18000030517578,1029100,0.0,0.0
2025-11-05 00:00:00-05:00,114.33000183105469,116.04000091552734,112.7699966430664,115.56999969482422,896900,0.0,0.0
2025-11-06 00:00:00-05:00,115.0199966430664,116.95999908447266,113.80000305175781,116.1500015258789,880300,0.0,0.0
2025-11-07 00:00:00-05:00,116.2300033569336,116.91999816894531,114.69000244140625,116.22000122070312,697200,0.0,0.0
2025-11-10 00:00:00-05:00,115.98999786376953,116.7699966430664,114.0,116.37999725341797,514000,0.0,0.0
2025-11-11 00:00:00-05:00,116.95999908447266,119.51000213623047,116.95999908447266,118.2699966430664,484800,0.0,0.0
2025-11-12 00:00:00-05:00,118.33999633789062,119.66999816894531,117.91000366210938,118.16000366210938,547500,0.0,0.0
2025-11-13 00:00:00-05:00,118.30000305175781,121.87999725341797,118.30000305175781,120.19999694824219,679400,0.0,0.0
2025-11-14 00:00:00-05:00,119.7699966430664,120.69000244140625,118.38999938964844,118.61000061035156,521200,0.0,0.0
2025-11-17 00:00:00-05:00,118.48999786376953,119.48999786376953,117.56999969482422,119.33999633789062,820200,0.0,0.0
2025-11-18 00:00:00-05:00,119.66000366210938,120.11000061035156,118.05999755859375,119.30999755859375,817400,0.0,0.0
2025-11-19 00:00:00-05:00,119.51000213623047,119.51000213623047,117.70999908447266,118.0,598900,0.0,0.0
2025-11-20 00:00:00-05:00,118.0,119.61000061035156,117.37000274658203,118.58000183105469,507400,0.0,0.0
2025-11-21 00:00:00-05:00,118.12999725341797,122.23999786376953,118.12999725341797,121.5199966430664,509100,0.0,0.0
2025-11-24 00:00:00-05:00,120.8499984741211,122.4000015258789,120.44000244140625,121.47000122070312,740000,0.0,0.0
2025-11-25 00:00:00-05:00,122.41000366210938,124.08000183105469,122.41000366210938,123.44000244140625,543600,0.0,0.0
2025-11-26 00:00:00-05:00,123.0199966430664,124.5199966430664,123.0199966430664,123.80999755859375,538000,0.0,0.0
2025-11-28 00:00:00-05:00,123.62999725341797,126.08000183105469,123.62999725341797,124.75,315700,0.0,0.0
2025-12-01 00:00:00-05:00,124.87999725341797,124.95999908447266,123.02999877929688,123.27999877929688,536800,0.0,0.0
2025-12-02 00:00:00-05:00,123.7699966430664,123.86000061035156,120.80000305175781,121.5999984741211,325400,0.0,0.0
2025-12-03 00:00:00-05:00,121.44999694824219,124.26000213623047,121.41000366210938,122.05999755859375,543100,0.0,0.0
2025-12-04 00:00:00-05:00,122.19999694824219,124.08000183105469,121.93000030517578,122.0199966430664,708000,0.0,0.0
2025-12-05 00:00:00-05:00,121.98999786376953,123.51000213623047,120.62000274658203,121.91000366210938,537000,0.0,0.0
2025-12-08 00:00:00-05:00,120.91999816894531,122.0999984741211,119.30000305175781,120.06999969482422,496600,0.0,0.0
2025-12-09 00:00:00-05:00,119.5999984741211,119.8499984741211,115.36000061035156,115.72000122070312,640300,0.0,0.0
2025-12-10 00:00:00-05:00,116.16999816894531,117.80000305175781,115.12999725341797,117.16999816894531,734700,0.0,0.0
2025-12-11 00:00:00-05:00,117.95999908447266,118.66999816894531,117.16000366210938,118.01000213623047,389700,0.0,0.0
2025-12-12 00:00:00-05:00,118.5199966430664,121.63999938964844,117.6500015258789,121.47000122070312,656400,0.0,0.0
2025-12-15 00:00:00-05:00,121.4800033569336,122.45999908447266,120.4800033569336,122.33000183105469,588600,0.0,0.0
2025-12-16 00:00:00-05:00,122.66999816894531,123.8499984741211,119.5199966430664,122.83000183105469,644800,0.0,0.0
2025-12-17 00:00:00-05:00,122.11000061035156,124.5999984741211,120.08000183105469,123.62999725341797,567300,0.0,0.0
2025-12-18 00:00:00-05:00,123.66999816894531,124.12000274658203,122.02999877929688,122.62000274658203,457100,0.0,0.0
2025-12-19 00:00:00-05:00,123.33999633789062,124.33000183105469,121.26000213623047,121.38999938964844,1300400,0.0,0.0
2025-12-22 00:00:00-05:00,121.38999938964844,123.69999694824219,121.06999969482422,122.73999786376953,527800,0.0,0.0
2025-12-23 00:00:00-05:00,122.87000274658203,123.02999877929688,121.31999969482422,122.19000244140625,311700,0.0,0.0
2025-12-24 00:00:00-05:00,122.52999877929688,123.16999816894531,121.76000213623047,122.75,198000,0.0,0.0
2025-12-26 00:00:00-05:00,122.37000274658203,123.4800033569336,121.72000122070312,123.25,306000,0.0,0.0
2025-12-29 00:00:00-05:00,123.29000091552734,124.30999755859375,122.31999969482422,123.20999908447266,400200,0.0,0.0
2025-12-30 00:00:00-05:00,122.80000305175781,124.30000305175781,122.41999816894531,122.73999786376953,289800,0.0,0.0
2025-12-31 00:00:00-05:00,121.5199966430664,123.33000183105469,121.3499984741211,121.95999908447266,314300,0.0,0.0
2026-01-02 00:00:00-05:00,121.73999786376953,123.0,120.77999877929688,122.54000091552734,295100,0.0,0.0
2026-01-05 00:00:00-05:00,121.76000213623047,124.58000183105469,121.76000213623047,123.0,435700,0.0,0.0
2026-01-06 00:00:00-05:00,122.22000122070312,122.8499984741211,120.11000061035156,120.55999755859375,777200,0.0,0.0
2026-01-07 00:00:00-05:00,120.66999816894531,121.94999694824219,117.61000061035156,120.44000244140625,478500,0.0,0.0
2026-01-08 00:00:00-05:00,119.91999816894531,123.37000274658203,119.5199966430664,122.44000244140625,330000,0.0,0.0
2026-01-09 00:00:00-05:00,122.08000183105469,124.97000122070312,121.45999908447266,123.8499984741211,429100,0.0,0.0
2026-01-12 00:00:00-05:00,124.0,125.30000305175781,122.9800033569336,125.12999725341797,477300,0.0,0.0
2026-01-13 00:00:00-05:00,125.05000305175781,125.44000244140625,122.54000091552734,123.5,351900,0.0,0.0
2026-01-14 00:00:00-05:00,124.11000061035156,127.16000366210938,124.11000061035156,126.8499984741211,611700,0.0,0.0
2026-01-15 00:00:00-05:00,127.13999938964844,127.22000122070312,124.5199966430664,125.11000061035156,381000,0.0,0.0
2026-01-16 00:00:00-05:00,124.0,125.19999694824219,123.23999786376953,124.70999908447266,363400,0.0,0.0
2026-01-20 00:00:00-05:00,124.9000015258789,125.52999877929688,123.44000244140625,123.81999969482422,275100,0.0,0.0
