Date,Open,High,Low,Close,Volume,Dividends,Stock Splits
2024-02-14 00:00:00-05:00,132.9021856539443,134.0726263669583,131.83904972630273,133.78976440429688,335000,0.0,0.0
2024-02-15 00:00:00-05:00,133.78978116953337,134.41400934940285,131.25386070002716,131.71226501464844,471400,0.0,0.0
2024-02-16 00:00:00-05:00,132.03414746363055,134.5993425958807,131.71227768453346,134.11166381835938,453900,0.0,0.0
2024-02-20 00:00:00-05:00,133.76053124158545,136.68660383536326,133.57521092940223,136.24769592285156,373000,0.0,0.0
2024-02-21 00:00:00-05:00,135.65273688027602,136.6573540182934,135.56495826808637,136.55006408691406,276300,0.0,0.0
2024-02-22 00:00:00-05:00,137.00846819088878,138.91041232510864,136.6183311469165,137.98382568359375,295700,0.0,0.0
2024-02-23 00:00:00-05:00,138.47152515137887,138.54955554840495,137.13528994890123,137.87655639648438,190300,0.0,0.0
2024-02-26 00:00:00-05:00,138.0130963569103,138.55929421566532,137.33034903346655,138.42274475097656,199200,0.0,0.0
2024-02-27 00:00:00-05:00,138.42272782671077,138.6763154064777,136.3549747905878,136.85240173339844,244600,0.0,0.0
2024-02-28 00:00:00-05:00,136.20866994135125,137.75949968886704,135.89656327805793,136.949951171875,189600,0.0,0.0
2024-02-29 00:00:00-05:00,137.16452724747361,138.13988472798977,136.38423828650588,136.99871826171875,250600,0.0,0.0
2024-03-01 00:00:00-05:00,136.43300051136615,137.320564451613,136.12087899360273,136.8328857421875,151400,0.0,0.0
2024-03-04 00:00:00-05:00,137.22303812234347,138.6177920924781,137.0962368949592,138.4617462158203,260300,0.0,0.0
2024-03-05 00:00:00-05:00,138.76412569531288,139.68096419264924,138.24718737367013,139.00796508789062,190200,0.0,0.0
2024-03-06 00:00:00-05:00,139.40783874026704,140.10034910578443,138.96893084683097,139.54440307617188,184000,0.0,0.0
2024-03-07 00:00:00-05:00,140.939151554329,141.56337972714795,140.29541206532937,141.08544921875,250100,0.0,0.0
2024-03-08 00:00:00-05:00,141.1439931095105,141.49512241162816,139.44686566881276,139.56390380859375,185200,0.0,0.0
2024-03-11 00:00:00-04:00,139.27127488408033,139.84674705390745,138.48123778104406,139.22251892089844,226700,0.0,0.0
2024-03-12 00:00:00-04:00,139.28105411326553,139.32982496486827,137.9935750682701,138.90066528320312,242200,0.0,0.0
2024-03-13 00:00:00-04:00,139.47612706519533,139.47612706519533,137.4571298303798,137.6814727783203,336800,0.0,0.0
2024-03-14 00:00:00-04:00,137.87653425906194,138.1301218465984,136.9011767770037,137.45712280273438,235200,0.0,0.0
2024-03-15 00:00:00-04:00,136.5890561463724,138.90066351449275,136.2964608060305,137.52540588378906,599500,0.0,0.0
2024-03-18 00:00:00-04:00,137.45712279692614,137.8180151855588,135.5064078328921,135.82827758789062,299700,0.0,0.0
2024-03-19 00:00:00-04:00,135.4576479614325,136.8621650763059,135.4576479614325,136.07211303710938,253000,0.0,0.0
2024-03-20 00:00:00-04:00,136.18919495543807,136.61835470748304,135.7112643437922,136.52081298828125,220000,0.0,0.0
2024-03-21 00:00:00-04:00,136.85240827716194,138.1106277849839,135.8673025611599,137.66195678710938,255800,0.0,0.0
2024-03-22 00:00:00-04:00,138.51050894714137,138.93966861515497,137.57417411036076,138.10086059570312,276000,0.0,0.0
2024-03-25 00:00:00-04:00,137.7204948296737,140.50027003737173,137.69123529130016,139.4371337890625,316300,0.0,0.0
2024-03-26 00:00:00-04:00,139.31031084887593,140.75383575411502,139.1054792293693,139.6711883544922,314200,0.0,0.0
2024-03-27 00:00:00-04:00,140.12960559296673,141.57313047792877,140.12960559296673,141.09521484375,218200,0.0,0.0
2024-03-28 00:00:00-04:00,141.25125201977713,141.76819020068078,140.1100708763634,140.3441619873047,247800,0.0,0.0
2024-04-01 00:00:00-04:00,140.2466668134247,140.2466668134247,138.61782136022939,138.78363037109375,204400,0.0,0.0
2024-04-02 00:00:00-04:00,138.34469442065378,138.34469442065378,136.9304291224682,137.16452026367188,202600,0.0,0.0
2024-04-03 00:00:00-04:00,137.20355458190332,137.7107447113418,136.4232655095617,137.40838623046875,258700,0.0,0.0
2024-04-04 00:00:00-04:00,138.33494260981908,139.23226963695814,137.4961346457671,138.2569122314453,403600,0.0,0.0
2024-04-05 00:00:00-04:00,137.89604531062415,139.242028512989,137.4766338551034,138.23741149902344,288300,0.0,0.0
2024-04-08 00:00:00-04:00,138.1788883078863,138.87139864657004,136.93043196113197,137.04747009277344,312500,0.0,0.0
2024-04-09 00:00:00-04:00,136.9596916484486,137.62294245496972,135.92581513038712,136.85240173339844,242600,0.0,0.0
2024-04-10 00:00:00-04:00,135.55518013032452,136.76462877873269,135.03824184996014,135.96482849121094,200700,0.0,0.0
2024-04-11 00:00:00-04:00,135.82827866294963,136.58905631432242,135.0382414775067,135.7014923095703,265300,0.0,0.0
2024-04-12 00:00:00-04:00,134.76515935277737,135.52593709888683,132.60962736639266,133.81906127929688,299200,0.0,0.0
2024-04-15 00:00:00-04:00,135.19430322171078,136.36472924127222,134.43352556485712,134.79440307617188,319600,0.0,0.0
2024-04-16 00:00:00-04:00,134.39453081045423,135.9551090821239,133.97513414357473,135.17481994628906,281700,0.0,0.0
2024-04-17 00:00:00-04:00,135.45766906073504,136.04287469456995,134.940730720265,134.98948669433594,565400,0.0,0.0
2024-04-18 00:00:00-04:00,134.97973293913282,136.00386135980355,134.8139239388757,135.68199157714844,246600,0.0,0.0
2024-04-19 00:00:00-04:00,135.63322735278595,136.47203549571145,135.35038019329093,135.9063262939453,276600,0.0,0.0
2024-04-22 00:00:00-04:00,136.11113793918858,137.67170096180095,135.81852772158192,136.86216735839844,298800,0.0,0.0
2024-04-23 00:00:00-04:00,136.32570914394802,137.68145534635985,136.08186979183958,136.6963348388672,417200,0.0,0.0
2024-04-24 00:00:00-04:00,136.90178896616595,137.83109432209855,136.59854336936667,136.96047973632812,559200,0.41,0.0
2024-04-25 00:00:00-04:00,136.79419427206184,138.17348717774,135.8942342352455,137.1267852783203,694400,0.0,0.0
2024-04-26 00:00:00-04:00,138.9071270669708,145.27532871602952,138.80929917592488,140.20816040039062,489500,0.0,0.0
2024-04-29 00:00:00-04:00,141.7439515679202,144.79600552411128,141.2254966026468,143.1917266845703,676700,0.0,0.0
2024-04-30 00:00:00-04:00,142.56570001935253,142.91785959865607,140.92228367378834,141.23532104492188,585100,0.0,0.0
2024-05-01 00:00:00-04:00,141.83202655109724,144.00367466578803,141.43095304197814,142.21353149414062,359600,0.0,0.0
2024-05-02 00:00:00-04:00,142.58522633954087,143.5341001651165,142.1254621178108,142.7417449951172,356500,0.0,0.0
2024-05-03 00:00:00-04:00,143.90583448298207,143.9254030473881,141.68527260579424,143.61236572265625,303300,0.0,0.0
2024-05-06 00:00:00-04:00,144.54165813146784,145.83291459114125,143.95473558961254,145.7937774658203,260200,0.0,0.0
2024-05-07 00:00:00-04:00,145.08949853907387,147.10462797548726,145.08949853907387,146.45899963378906,392900,0.0,0.0
2024-05-08 00:00:00-04:00,146.4589742681547,147.58392033494945,146.22419629553286,147.5056610107422,223500,0.0,0.0
2024-05-09 00:00:00-04:00,147.71109528278453,148.42519110044378,145.39272061672744,145.83291625976562,299100,0.0,0.0
2024-05-10 00:00:00-04:00,145.70575558119742,145.75466952941503,144.86448642175523,145.2557830810547,186300,0.0,0.0
2024-05-13 00:00:00-04:00,145.29488969836768,146.22419490905267,143.6612655029354,144.64926147460938,167500,0.0,0.0
2024-05-14 00:00:00-04:00,145.0699007359215,145.07967755375532,144.2579770625301,144.67860412597656,137600,0.0,0.0
2024-05-15 00:00:00-04:00,144.73730981078913,145.10902293218365,143.57322665167914,144.07211303710938,211100,0.0,0.0
2024-05-16 00:00:00-04:00,144.16016631041785,144.67862131957352,143.24063782581982,144.3264617919922,235500,0.0,0.0
2024-05-17 00:00:00-04:00,144.62970048169964,144.94272283319833,143.92538153277894,144.45361328125,169500,0.0,0.0
2024-05-20 00:00:00-04:00,144.3753952485443,145.17754230781887,143.83737160225564,144.94276428222656,163400,0.0,0.0
2024-05-21 00:00:00-04:00,144.7177401974752,145.44161279933869,143.8862479680252,145.35357666015625,280400,0.0,0.0
2024-05-22 00:00:00-04:00,144.84490559308335,145.58834671653028,144.25796817753573,145.54920959472656,283300,0.0,0.0
2024-05-23 00:00:00-04:00,145.422045985499,145.7057229393039,144.3459990715398,144.5025177001953,171700,0.0,0.0
2024-05-24 00:00:00-04:00,145.24597630987142,145.58835898553383,144.1503756300553,144.86447143554688,162300,0.0,0.0
2024-05-28 00:00:00-04:00,144.40470973047522,144.56122838070533,142.64392715792664,143.51454162597656,318400,0.0,0.0
2024-05-29 00:00:00-04:00,142.4776274189923,143.50476061409208,141.3624580739689,141.68527221679688,229700,0.0,0.0
2024-05-30 00:00:00-04:00,141.9689740793988,143.77867085777473,141.8418007918825,142.95697021484375,328100,0.0,0.0
2024-05-31 00:00:00-04:00,142.9080336791022,144.61014039312926,142.74173821286894,144.4731903076172,358900,0.0,0.0
2024-06-03 00:00:00-04:00,145.26555910339786,145.26555910339786,143.09391116713076,144.93296813964844,266200,0.0,0.0
2024-06-04 00:00:00-04:00,144.4340640454248,145.15795165268443,143.50475875766728,144.96231079101562,287900,0.0,0.0
2024-06-05 00:00:00-04:00,144.5025402991468,144.97208133210754,143.87648061305237,144.69818115234375,229200,0.0,0.0
2024-06-06 00:00:00-04:00,144.7862212470873,144.7862212470873,142.2330684881502,142.7808837890625,197600,0.0,0.0
2024-06-07 00:00:00-04:00,142.59503121697097,143.14283163549774,142.28199387698888,142.37982177734375,179100,0.0,0.0
2024-06-10 00:00:00-04:00,141.67550401275804,142.6341547541383,140.85380337728924,142.4189453125,125800,0.0,0.0
2024-06-11 00:00:00-04:00,141.7537411225742,142.56566481118944,141.20594078481926,142.3308868408203,147700,0.0,0.0
2024-06-12 00:00:00-04:00,143.05479052154735,143.12325810826857,140.93205651012718,142.65371704101562,221300,0.0,0.0
2024-06-13 00:00:00-04:00,142.71240780861706,143.3384675404348,141.8613618255133,142.65371704101562,232400,0.0,0.0
2024-06-14 00:00:00-04:00,141.92983524372966,142.21352720071462,140.55054244265887,141.5972442626953,141500,0.0,0.0
2024-06-17 00:00:00-04:00,141.71461561671782,143.48519004157248,141.42116178774597,143.142822265625,303800,0.0,0.0
2024-06-18 00:00:00-04:00,143.28953201749397,144.47318371619113,143.27975519984625,143.49496459960938,219900,0.0,0.0
2024-06-20 00:00:00-04:00,143.46564765792573,144.3166936815853,142.49720516702743,142.6341552734375,199900,0.0,0.0
2024-06-21 00:00:00-04:00,142.6928388933288,143.93518153479198,142.14503849513946,143.65150451660156,444100,0.0,0.0
2024-06-24 00:00:00-04:00,144.01341679997077,145.00141271542108,143.47539331078937,143.52430725097656,182900,0.0,0.0
2024-06-25 00:00:00-04:00,143.59278987668708,143.60258162161415,141.35267447513021,141.704833984375,194500,0.0,0.0
2024-06-26 00:00:00-04:00,141.10812684702637,141.6363586745215,139.84623058185173,140.57989501953125,192400,0.0,0.0
2024-06-27 00:00:00-04:00,140.73638916015625,140.74618090491342,139.1712474223484,140.73638916015625,377300,0.0,0.0
2024-06-28 00:00:00-04:00,140.64836976622286,141.17661654705415,137.03873816082947,137.74305725097656,435100,0.0,0.0
2024-07-01 00:00:00-04:00,138.30064553329024,138.39845850468294,135.3757645347683,135.52249145507812,306400,0.0,0.0
2024-07-02 00:00:00-04:00,135.463800767183,137.4398078783609,134.75948169639565,137.34197998046875,259400,0.0,0.0
2024-07-03 00:00:00-04:00,137.81152831067402,138.32019155737456,137.50828274109926,138.1441192626953,143300,0.0,0.0
2024-07-05 00:00:00-04:00,137.91915154947608,138.35934727174964,136.68658561537885,137.8311004638672,207000,0.0,0.0
2024-07-08 00:00:00-04:00,138.56474550287118,139.3962378042094,138.41801859154825,138.42779541015625,249300,0.0,0.0
2024-07-09 00:00:00-04:00,137.7919693677499,138.1930428577772,136.70614536209172,136.9898223876953,238400,0.0,0.0
2024-07-10 00:00:00-04:00,137.68435364407958,138.54519132431884,137.50828135118005,138.21258544921875,142000,0.0,0.0
2024-07-11 00:00:00-04:00,138.12454847030526,140.1788147670624,137.6843528142689,138.9951629638672,244500,0.0,0.0
2024-07-12 00:00:00-04:00,140.28642803925482,142.32112589674372,140.28642803925482,141.4407196044922,263900,0.0,0.0
2024-07-15 00:00:00-04:00,141.60701793371598,142.5167696280142,140.02230747283468,140.3059844970703,319900,0.0,0.0
2024-07-16 00:00:00-04:00,140.71686480587653,142.1352799318926,140.71686480587653,141.41139221191406,178800,0.0,0.0
2024-07-17 00:00:00-04:00,141.1961558207013,142.59501703919386,141.1961558207013,141.704833984375,242300,0.0,0.0
2024-07-18 00:00:00-04:00,141.4602632395402,144.04276104076877,141.45048642215556,143.09388732910156,434200,0.0,0.0
2024-07-19 00:00:00-04:00,143.39715857359943,143.39715857359943,141.50920255553004,142.76132202148438,251200,0.0,0.0
2024-07-22 00:00:00-04:00,142.81022503932832,144.34602140714523,142.08633746461317,143.9840850830078,235700,0.0,0.0
2024-07-23 00:00:00-04:00,144.64927385495375,145.27533356981945,142.49719451800544,142.859130859375,234500,0.0,0.0
2024-07-24 00:00:00-04:00,142.88848966890302,143.43629004785507,140.7657408108026,141.00051879882812,250600,0.0,0.0
2024-07-25 00:00:00-04:00,140.15662064812102,141.3537868323138,138.57675478033786,138.84170532226562,558100,0.45,0.0
2024-07-26 00:00:00-04:00,140.45102021979721,148.45827695933554,139.68562078861478,143.91494750976562,562800,0.0,0.0
2024-07-29 00:00:00-04:00,143.8364185149224,145.57329306893098,142.45280632828528,145.03358459472656,390900,0.0,0.0
2024-07-30 00:00:00-04:00,144.62146846262505,145.13172475418546,142.6883400871864,143.02197265625,411000,0.0,0.0
2024-07-31 00:00:00-04:00,143.75793131592994,146.06395190310548,142.68833664919208,144.22894287109375,280600,0.0,0.0
2024-08-01 00:00:00-04:00,144.13081345639438,146.74101416180025,142.70794150668374,144.2779998779297,335300,0.0,0.0
2024-08-02 00:00:00-04:00,143.83643005460556,144.24856702073956,141.0593980219817,142.9630889892578,213500,0.0,0.0
2024-08-05 00:00:00-04:00,140.7453874925113,140.7453874925113,136.86932335346282,138.04685974121094,448500,0.0,0.0
2024-08-06 00:00:00-04:00,138.68469153261674,143.3555919877559,138.4688081318192,142.21730041503906,476000,0.0,0.0
2024-08-07 00:00:00-04:00,143.27709635686887,144.5036998578895,140.78464463099738,140.91221618652344,353600,0.0,0.0
2024-08-08 00:00:00-04:00,141.75612338985297,143.42430119656396,141.75612338985297,142.8355255126953,268600,0.0,0.0
2024-08-09 00:00:00-04:00,142.6883251235522,142.6883251235522,140.7846342348352,141.25564575195312,263200,0.0,0.0
2024-08-12 00:00:00-04:00,141.2752971107165,141.48135813006314,140.09776065202757,140.60801696777344,221100,0.0,0.0
2024-08-13 00:00:00-04:00,140.82388188168525,142.58038638691872,140.42156733432256,141.66778564453125,212000,0.0,0.0
2024-08-14 00:00:00-04:00,141.43229456951534,142.09955968550838,140.80427417726833,141.2065887451172,115700,0.0,0.0
2024-08-15 00:00:00-04:00,142.2859890142112,144.58218689853118,142.2859890142112,144.25836181640625,277500,0.0,0.0
2024-08-16 00:00:00-04:00,143.37521760611233,144.09154979316477,142.88457625025995,143.9738006591797,250600,0.0,0.0
2024-08-19 00:00:00-04:00,143.58127326896982,144.96487031728478,143.18875125585822,144.21910095214844,191200,0.0,0.0
2024-08-20 00:00:00-04:00,144.2289295518495,145.53403736223893,144.2289295518495,145.33778381347656,387200,0.0,0.0
2024-08-21 00:00:00-04:00,145.39665113837094,146.7704558576483,144.69994882899036,146.53494262695312,267300,0.0,0.0
2024-08-22 00:00:00-04:00,146.77048558123275,147.58493718430896,145.8873220171587,146.2013397216797,200400,0.0,0.0
2024-08-23 00:00:00-04:00,146.85877669525328,147.71248787736351,146.64289329719546,147.62417602539062,221400,0.0,0.0
2024-08-26 00:00:00-04:00,147.85968253592975,149.81244066419112,147.32979642138147,147.34942626953125,235500,0.0,0.0
2024-08-27 00:00:00-04:00,147.2022204683962,148.7035818834596,147.03540419707656,148.3699493408203,208300,0.0,0.0
2024-08-28 00:00:00-04:00,148.1050148789082,149.12555743833656,148.1050148789082,148.70359802246094,249000,0.0,0.0
2024-08-29 00:00:00-04:00,149.69466852073552,150.0479308672171,148.37975338729248,149.42971801757812,187100,0.0,0.0
2024-08-30 00:00:00-04:00,149.351232808882,150.56802881944182,148.80171685997968,150.3227081298828,178500,0.0,0.0
2024-09-03 00:00:00-04:00,149.26292143881992,149.5278719768961,146.92746367521593,147.23165893554688,362400,0.0,0.0
2024-09-04 00:00:00-04:00,146.79991305774996,148.07556872083794,146.79991305774996,147.90875244140625,175800,0.0,0.0
2024-09-05 00:00:00-04:00,148.2521881427174,148.91945317371943,147.14333392999208,147.89892578125,200600,0.0,0.0
2024-09-06 00:00:00-04:00,147.5653122082446,150.2540174965452,147.5653122082446,149.5278778076172,319100,0.0,0.0
2024-09-09 00:00:00-04:00,149.71433118090496,150.19515019318135,148.60547677217497,149.06668090820312,241500,0.0,0.0
2024-09-10 00:00:00-04:00,149.02739566413877,149.93017393201126,148.60545129930958,148.67413330078125,158100,0.0,0.0
2024-09-11 00:00:00-04:00,147.96762598087645,148.05595281199558,145.84806652457317,148.01669311523438,178000,0.0,0.0
2024-09-12 00:00:00-04:00,148.06575815275983,149.16479007551516,147.1629797914698,149.11573791503906,200400,0.0,0.0
2024-09-13 00:00:00-04:00,149.3414061742539,150.1460501465158,149.0568258259629,149.42971801757812,138600,0.0,0.0
2024-09-16 00:00:00-04:00,150.1755170064684,150.30308856518658,149.22368644119183,150.12646484375,182900,0.0,0.0
2024-09-17 00:00:00-04:00,151.11752528224721,152.65814620114944,149.02738848530092,150.16567993164062,259900,0.0,0.0
2024-09-18 00:00:00-04:00,150.88204389473123,152.57967398645138,149.85170889260166,150.20497131347656,214200,0.0,0.0
2024-09-19 00:00:00-04:00,152.11845545549014,155.83751047409214,152.11845545549014,153.9632568359375,412400,0.0,0.0
2024-09-20 00:00:00-04:00,153.3842978658555,153.3842978658555,151.5885487113951,152.99179077148438,663300,0.0,0.0
2024-09-23 00:00:00-04:00,153.24692402795387,153.97307864741222,151.84369689396294,153.04086303710938,315800,0.0,0.0
2024-09-24 00:00:00-04:00,153.25674449023583,154.1399080170453,153.10955805569475,153.69833374023438,246200,0.0,0.0
2024-09-25 00:00:00-04:00,154.3558003586173,154.91512381539124,152.95255805106856,154.19879150390625,284100,0.0,0.0
2024-09-26 00:00:00-04:00,154.98380629667253,156.0828382303956,154.74829303665166,155.4155731201172,371600,0.0,0.0
2024-09-27 00:00:00-04:00,155.7099344145292,158.52622599531733,155.29779746999125,156.8972930908203,354300,0.0,0.0
2024-09-30 00:00:00-04:00,156.30850230550374,157.4173564600334,155.95523996257654,157.19166564941406,289800,0.0,0.0
2024-10-01 00:00:00-04:00,157.53512293074894,157.53512293074894,156.07302124547277,156.97579956054688,192200,0.0,0.0
2024-10-02 00:00:00-04:00,156.86788059323732,157.1132013113568,155.00344912480475,155.77865600585938,186900,0.0,0.0
2024-10-03 00:00:00-04:00,155.03288740920829,157.45665731765635,153.70814953357643,155.96510314941406,367000,0.0,0.0
2024-10-04 00:00:00-04:00,156.94636623239919,158.4477276497133,156.34778315291413,157.5743865966797,350500,0.0,0.0
2024-10-07 00:00:00-04:00,156.40665198876852,156.65197266852837,155.05247704507457,155.71975708007812,223300,0.0,0.0
2024-10-08 00:00:00-04:00,155.31743459853183,156.04358923382046,154.15952812480893,155.70013427734375,205900,0.0,0.0
2024-10-09 00:00:00-04:00,155.38612327136772,157.05430088537946,155.16041746715078,156.71084594726562,152600,0.0,0.0
2024-10-10 00:00:00-04:00,155.09175379452122,156.3968617511509,155.09175379452122,156.23985290527344,168500,0.0,0.0
2024-10-11 00:00:00-04:00,157.9276467872525,158.88929968127525,157.3486935634256,158.52622985839844,194400,0.0,0.0
2024-10-14 00:00:00-04:00,161.9018649008837,164.6200076497608,160.40050331886653,164.06068420410156,469700,0.0,0.0
2024-10-15 00:00:00-04:00,164.1882359553576,166.48443398334234,163.37376948084616,165.52276611328125,397300,0.0,0.0
2024-10-16 00:00:00-04:00,165.54239028642257,166.033031641731,162.81442554876264,162.9321746826172,330000,0.0,0.0
2024-10-17 00:00:00-04:00,163.85458770692577,165.16951795794049,163.40320603158116,164.74755859375,238200,0.0,0.0
2024-10-18 00:00:00-04:00,165.93492848190388,165.93492848190388,164.63962799086934,165.47372436523438,171500,0.0,0.0
2024-10-21 00:00:00-04:00,165.31669544953982,165.33632529576852,163.1873138158825,163.2167510986328,217900,0.0,0.0
2024-10-22 00:00:00-04:00,162.61817008424393,163.25599784935144,161.72519923454482,162.70648193359375,228500,0.0,0.0
2024-10-23 00:00:00-04:00,163.39337750196967,164.8358642733739,163.04993753979795,164.5120391845703,318100,0.0,0.0
2024-10-24 00:00:00-04:00,165.6140775779372,165.62391141205347,163.47894950921201,163.87252807617188,547300,0.45,0.0
2024-10-25 00:00:00-04:00,166.204413911709,167.11947089355849,161.96370454661343,166.194580078125,518900,0.0,0.0
2024-10-28 00:00:00-04:00,167.1686425080967,168.65437700934277,166.0469700108999,166.3815155029297,350000,0.0,0.0
2024-10-29 00:00:00-04:00,166.31264221910413,166.76525378257975,164.94498870881085,165.98794555664062,338100,0.0,0.0
2024-10-30 00:00:00-04:00,165.64357635714168,167.4638263639047,165.41726307531505,166.31263732910156,290300,0.0,0.0
2024-10-31 00:00:00-04:00,166.37167045155186,167.5425421666506,165.1614483906913,165.2106475830078,329900,0.0,0.0
2024-11-01 00:00:00-04:00,165.39760088847163,168.2411401404729,164.92530664304553,166.68653869628906,316300,0.0,0.0
2024-11-04 00:00:00-05:00,166.90297832397601,167.82786898356716,165.4762769799135,165.55499267578125,191800,0.0,0.0
2024-11-05 00:00:00-05:00,165.04337576329235,167.62125119230913,165.04337576329235,167.57205200195312,206200,0.0,0.0
2024-11-06 00:00:00-05:00,172.33423456761616,172.33423456761616,169.3726295578274,170.37623596191406,264100,0.0,0.0
2024-11-07 00:00:00-05:00,171.39952591463276,172.63927953265434,170.75013259219153,171.90133666992188,412300,0.0,0.0
2024-11-08 00:00:00-05:00,171.89149137678803,174.98101162542764,171.68487577850354,172.9344482421875,309200,0.0,0.0
2024-11-11 00:00:00-05:00,173.48545653213273,175.16795787019572,173.07219531256996,173.31817626953125,189100,0.0,0.0
2024-11-12 00:00:00-05:00,173.8101212713204,174.39064768351193,172.1374539294353,172.87539672851562,179800,0.0,0.0
2024-11-13 00:00:00-05:00,172.67861938476562,173.55431092811477,172.23585669673247,172.67861938476562,168400,0.0,0.0
2024-11-14 00:00:00-05:00,172.3342401368319,172.96395074115134,171.11418428604836,171.30113220214844,198200,0.0,0.0
2024-11-15 00:00:00-05:00,170.18931434571556,170.9666076032505,163.49862897391645,163.81349182128906,620500,0.0,0.0
2024-11-18 00:00:00-05:00,163.71508900697032,165.12210792125381,161.68820827557767,164.01026916503906,384400,0.0,0.0
2024-11-19 00:00:00-05:00,163.7445787425749,164.97448335548347,163.5281143296243,164.21685791015625,287600,0.0,0.0
2024-11-20 00:00:00-05:00,164.3152721102554,166.2240866554903,162.98696899498788,166.0174560546875,221800,0.0,0.0
2024-11-21 00:00:00-05:00,165.97811504413784,167.4933511524646,165.04339039842748,167.14898681640625,205100,0.0,0.0
2024-11-22 00:00:00-05:00,167.44414141383476,169.30377176809216,167.44414141383476,168.7527618408203,241600,0.0,0.0
2024-11-25 00:00:00-05:00,169.28408971773192,171.2224207696019,168.97907574743007,169.7268524169922,270100,0.0,0.0
2024-11-26 00:00:00-05:00,170.08105561759376,170.08105561759376,168.40838828864082,169.27423095703125,140300,0.0,0.0
2024-11-27 00:00:00-05:00,169.89412910089996,171.08468356339304,168.76262268063928,168.96923828125,167200,0.0,0.0
2024-11-29 00:00:00-05:00,169.8153966210403,170.7009370052356,169.32343474542677,170.17945861816406,117300,0.0,0.0
2024-12-02 00:00:00-05:00,170.19913044726937,170.32704534237342,168.0935341686711,169.982666015625,170900,0.0,0.0
2024-12-03 00:00:00-05:00,170.6615867781975,170.6615867781975,168.33952591889235,169.6284637451172,160100,0.0,0.0
2024-12-04 00:00:00-05:00,169.12665553642208,170.11057930241756,168.28048049712658,169.81539916992188,173400,0.0,0.0
2024-12-05 00:00:00-05:00,169.2447091264887,169.66780412173642,167.78850626377746,168.34934997558594,245000,0.0,0.0
2024-12-06 00:00:00-05:00,168.84133731004735,169.87444533346505,168.10339442847106,168.3985595703125,209200,0.0,0.0
2024-12-09 00:00:00-05:00,168.80196758361805,170.68126567667068,167.49334710584512,168.04434204101562,301700,0.0,0.0
2024-12-10 00:00:00-05:00,167.97546663297192,168.61501107586,165.48614070458325,168.16241455078125,287000,0.0,0.0
2024-12-11 00:00:00-05:00,169.11683694116255,171.30114909955935,168.98892203574263,169.5399169921875,418600,0.0,0.0
2024-12-12 00:00:00-05:00,168.91020804318094,169.82526504432033,168.03451640418018,168.8806915283203,178300,0.0,0.0
2024-12-13 00:00:00-05:00,168.16241388859282,168.25096342400062,167.0899405904716,167.4638214111328,153200,0.0,0.0
2024-12-16 00:00:00-05:00,167.40480894815065,168.1821022102278,164.89580004237837,164.93516540527344,236100,0.0,0.0
2024-12-17 00:00:00-05:00,164.2168715592174,164.22672040556904,160.22214344662177,160.46812438964844,511900,0.0,0.0
2024-12-18 00:00:00-05:00,161.05847804620504,161.77673816657958,155.37140007798456,155.6665802001953,468600,0.0,0.0
2024-12-19 00:00:00-05:00,155.961750589169,158.97256992147132,155.68625313604096,156.3159637451172,404700,0.0,0.0
2024-12-20 00:00:00-05:00,156.1683816857253,157.21133847783258,154.93847697550726,155.63705444335938,730200,0.0,0.0
2024-12-23 00:00:00-05:00,154.64330027166915,156.34548422458207,154.43668468332243,155.9716033935547,194900,0.0,0.0
2024-12-24 00:00:00-05:00,156.2274252507946,156.8571359043753,155.38125015253118,156.78826904296875,100500,0.0,0.0
2024-12-26 00:00:00-05:00,155.8732153599991,157.06376983088433,155.8732153599991,156.2963104248047,164500,0.0,0.0
2024-12-27 00:00:00-05:00,155.28286230113363,157.01456279519272,155.07623169589766,155.6075439453125,145000,0.0,0.0
2024-12-30 00:00:00-05:00,154.47605183957836,154.95817995399676,152.5082040454436,154.21038818359375,221700,0.0,0.0
2024-12-31 00:00:00-05:00,154.7515314475807,155.70593871852984,153.66920928047796,154.57443237304688,317100,0.0,0.0
2025-01-02 00:00:00-05:00,155.11558622782664,155.56819779682613,150.983109132969,151.68170166015625,239400,0.0,0.0
2025-01-03 00:00:00-05:00,151.56361721810913,153.2166170273575,150.41242816102755,153.00015258789062,250700,0.0,0.0
2025-01-06 00:00:00-05:00,151.52426364018712,152.15397426516537,149.00542114027417,150.4616241455078,369000,0.0,0.0
2025-01-07 00:00:00-05:00,153.4134004022987,153.55114913672944,150.14678112287606,150.9634246826172,361200,0.0,0.0
2025-01-08 00:00:00-05:00,150.43212106017117,151.7800919682968,149.64497895531818,151.67185974121094,228600,0.0,0.0
2025-01-10 00:00:00-05:00,150.2648483292892,151.81944978034818,150.12709959380228,150.9831085205078,350800,0.0,0.0
2025-01-13 00:00:00-05:00,150.47147260654185,152.21302208769376,150.47147260654185,151.41604614257812,349300,0.0,0.0
2025-01-14 00:00:00-05:00,152.321247708254,152.95095836713358,151.0126271956554,152.1244659423828,196900,0.0,0.0
2025-01-15 00:00:00-05:00,153.6101684725972,154.39731046210895,151.69152019493302,153.05917358398438,206100,0.0,0.0
2025-01-16 00:00:00-05:00,153.38387849846134,154.64329974427918,152.81320090059305,153.89552307128906,346300,0.0,0.0
2025-01-17 00:00:00-05:00,154.4465310274226,155.4107722159494,153.17726082796082,153.58067321777344,231900,0.0,0.0
2025-01-21 00:00:00-05:00,154.20055514580957,157.68363915348127,154.20055514580957,157.26055908203125,270900,0.0,0.0
2025-01-22 00:00:00-05:00,156.77842023212838,158.16575644241834,155.79449639733883,156.5127716064453,280000,0.0,0.0
2025-01-23 00:00:00-05:00,155.9125691247179,157.24085722252315,155.19429395404214,157.0539093017578,149800,0.0,0.0
2025-01-24 00:00:00-05:00,157.08343034805782,157.89025507917765,154.69250269490755,155.75514221191406,329600,0.0,0.0
2025-01-27 00:00:00-05:00,155.70593654111983,156.36516366514172,154.1316525043463,155.91256713867188,317000,0.0,0.0
2025-01-28 00:00:00-05:00,155.0368581023264,157.77216467233657,155.0368581023264,155.87318420410156,204300,0.0,0.0
2025-01-29 00:00:00-05:00,156.22740987357176,156.2667752306319,154.10213099686746,154.58425903320312,265800,0.0,0.0
2025-01-30 00:00:00-05:00,155.28286139023555,156.1290214456585,154.06279047284826,155.58787536621094,274200,0.0,0.0
2025-01-31 00:00:00-05:00,155.36156959499,156.8276215333763,154.2398970088009,154.62362670898438,834100,0.0,0.0
2025-02-03 00:00:00-05:00,152.09495520009364,154.2300682184693,151.6620262906558,153.47244262695312,364600,0.0,0.0
2025-02-04 00:00:00-05:00,153.58066175061302,155.91257135685308,153.58066175061302,155.16477966308594,302400,0.0,0.0
2025-02-05 00:00:00-05:00,156.18111830402617,157.54282355753207,155.6877485810399,156.22059631347656,262600,0.45,0.0
2025-02-06 00:00:00-05:00,157.72042754941586,157.72042754941586,153.30970107401376,154.37538146972656,446600,0.0,0.0
2025-02-07 00:00:00-05:00,155.5298778454868,155.80616370572014,140.15647436444476,141.28135681152344,1221500,0.0,0.0
2025-02-10 00:00:00-05:00,142.34703590173154,142.68253877711308,139.03159055496985,141.38003540039062,621900,0.0,0.0
2025-02-11 00:00:00-05:00,140.38342851707733,141.1728231038295,138.40007254760076,140.4031524658203,377300,0.0,0.0
2025-02-12 00:00:00-05:00,139.10066826882291,141.58725602014744,138.07445075906045,139.82098388671875,423500,0.0,0.0
2025-02-13 00:00:00-05:00,140.85706153159677,141.873401996976,139.58417422035222,140.87680053710938,665900,0.0,0.0
2025-02-14 00:00:00-05:00,141.78459078054618,143.38310383541634,140.8274523311255,142.8699951171875,512800,0.0,0.0
2025-02-18 00:00:00-05:00,142.86999038261183,145.33683887020504,141.99179292328657,144.95201110839844,489600,0.0,0.0
2025-02-19 00:00:00-05:00,144.20210468941022,145.53420898859972,143.6791339779238,145.0901641845703,331000,0.0,0.0
2025-02-20 00:00:00-05:00,145.0210871668037,145.46511687432087,143.98500781163168,144.73492431640625,283100,0.0,0.0
2025-02-21 00:00:00-05:00,145.08029719584493,145.43552399292116,143.2745622320782,144.39944458007812,451900,0.0,0.0
2025-02-24 00:00:00-05:00,144.2415718652718,145.33685330480253,142.44571381729563,143.67913818359375,353300,0.0,0.0
2025-02-25 00:00:00-05:00,143.94556191982593,146.3630706640838,143.78767998754833,145.7512969970703,336700,0.0,0.0
2025-02-26 00:00:00-05:00,144.70532706157428,147.2017765403377,144.67572608407497,144.69546508789062,735600,0.0,0.0
2025-02-27 00:00:00-05:00,144.29091774276728,145.22831728813892,143.4324591668359,143.69888305664062,262800,0.0,0.0
2025-02-28 00:00:00-05:00,144.22184344398863,145.00136099447968,142.7121332709692,144.80401611328125,348700,0.0,0.0
2025-03-03 00:00:00-05:00,145.02109923466546,146.86629720163523,143.75807393391779,144.64613342285156,394100,0.0,0.0
2025-03-04 00:00:00-05:00,143.61005592009485,145.9881016576862,143.21536615445163,144.0047607421875,490100,0.0,0.0
2025-03-05 00:00:00-05:00,144.11329675818794,146.87617017338948,144.11329675818794,146.4716033935547,445100,0.0,0.0
2025-03-06 00:00:00-05:00,145.60326942274776,149.4910252271253,145.10989970252623,149.14566040039062,471700,0.0,0.0
2025-03-07 00:00:00-05:00,148.5141409364155,151.32635423503427,147.2017757341566,150.75404357910156,480200,0.0,0.0
2025-03-10 00:00:00-04:00,150.0534734133287,151.95787329966407,148.24773843682507,148.5733642578125,391100,0.0,0.0
2025-03-11 00:00:00-04:00,148.3464026408534,148.56348652047885,145.31712041299642,145.92889404296875,304000,0.0,0.0
2025-03-12 00:00:00-04:00,146.27425230822007,146.27425230822007,143.62978291883215,144.0935516357422,299700,0.0,0.0
2025-03-13 00:00:00-04:00,144.46852214381718,145.24803966103914,141.85365364607793,142.84039306640625,238400,0.0,0.0
2025-03-14 00:00:00-04:00,143.30416473163334,144.94215581645253,142.62331210863928,144.7152099609375,223600,0.0,0.0
2025-03-17 00:00:00-04:00,144.56721217286358,146.0374595849535,143.92583746078046,145.87957763671875,225200,0.0,0.0
2025-03-18 00:00:00-04:00,145.43554311698776,145.57368605310205,143.8468918234482,144.36000061035156,219900,0.0,0.0
2025-03-19 00:00:00-04:00,144.39944743753657,145.5046058594481,143.54098893446837,145.0309600830078,279600,0.0,0.0
2025-03-20 00:00:00-04:00,144.19222682146875,145.4651139650872,141.8240433346598,143.27455139160156,332800,0.0,0.0
2025-03-21 00:00:00-04:00,142.09049403408983,143.53114039010703,140.47224178762627,142.89962768554688,601900,0.0,0.0
2025-03-24 00:00:00-04:00,143.817270903968,146.21504047479127,142.98841340218578,146.02757263183594,463800,0.0,0.0
2025-03-25 00:00:00-04:00,146.52094458781016,147.25112213589688,143.99487897878777,145.25791931152344,325200,0.0,0.0
2025-03-26 00:00:00-04:00,145.10004043414855,146.72815451865972,144.35998584001632,146.5900115966797,630400,0.0,0.0
2025-03-27 00:00:00-04:00,146.31373410398328,147.90238532565513,145.08030971002844,147.3695526123047,312700,0.0,0.0
2025-03-28 00:00:00-04:00,147.31033425484426,148.01092592907992,143.82714500249594,144.98162841796875,239800,0.0,0.0
2025-03-31 00:00:00-04:00,144.63626533277775,147.11297584539574,144.16263462913676,146.4123992919922,372500,0.0,0.0
2025-04-01 00:00:00-04:00,146.90577987752815,148.04052426681275,145.42567064466144,147.12286376953125,240000,0.0,0.0
2025-04-02 00:00:00-04:00,146.03744014019475,149.12593946933157,146.03744014019475,148.5338897705078,247600,0.0,0.0
2025-04-03 00:00:00-04:00,144.81388652544504,148.06026797764568,144.51787671462446,146.6985626220703,352900,0.0,0.0
2025-04-04 00:00:00-04:00,143.2943120074954,145.99798366938302,138.18299354627644,138.32113647460938,531600,0.0,0.0
2025-04-07 00:00:00-04:00,134.53204819675787,140.23540080963647,129.11485844577496,132.8644561767578,629900,0.0,0.0
2025-04-08 00:00:00-04:00,135.55827586465514,137.46267585200042,129.5391589570541,131.88760375976562,473800,0.0,0.0
2025-04-09 00:00:00-04:00,131.41395257461977,142.50490940034226,129.57863165389583,141.8437957763672,491800,0.0,0.0
2025-04-10 00:00:00-04:00,138.1435312694075,141.46883859689996,135.74576148947023,138.89344787597656,309000,0.0,0.0
2025-04-11 00:00:00-04:00,139.00199411611828,142.79108539083197,137.88698867483097,142.19903564453125,203000,0.0,0.0
2025-04-14 00:00:00-04:00,143.8666275197805,144.4586622081674,141.88327141409073,143.85675048828125,249300,0.0,0.0
2025-04-15 00:00:00-04:00,144.16264136826962,144.59679408397406,141.86353661587313,142.03128051757812,250700,0.0,0.0
2025-04-16 00:00:00-04:00,142.149702370231,143.88637367796537,140.67947002301185,143.07723999023438,307700,0.0,0.0
2025-04-17 00:00:00-04:00,143.47191794381823,143.82714476772617,138.84412231474096,141.92274475097656,390600,0.0,0.0
2025-04-21 00:00:00-04:00,141.39976942061477,142.13982402499016,139.2289455924035,140.68931579589844,291600,0.0,0.0
2025-04-22 00:00:00-04:00,142.5838614223611,144.87310434841834,141.68592484068608,144.08370971679688,217800,0.0,0.0
2025-04-23 00:00:00-04:00,145.90917104553122,147.33995542451333,145.26779636674308,146.0867919921875,537000,0.0,0.0
2025-04-24 00:00:00-04:00,145.96836437930722,149.98440129908244,143.53113171013078,149.45156860351562,424500,0.0,0.0
2025-04-25 00:00:00-04:00,148.84964599868292,150.9711297072843,145.61314193888578,147.0833740234375,220500,0.0,0.0
2025-04-28 00:00:00-04:00,147.81356949185763,149.02725477385636,146.3137213438059,147.7148895263672,235200,0.0,0.0
2025-04-29 00:00:00-04:00,147.774082849792,149.96464545895293,147.03402832119568,148.3069305419922,359900,0.0,0.0
2025-04-30 00:00:00-04:00,147.0932730557626,148.00107164184,145.25793687665262,147.9615936279297,556200,0.0,0.0
2025-05-01 00:00:00-04:00,146.92238394801444,148.98098168406787,145.44772634078012,146.75413513183594,445300,0.45,0.0
2025-05-02 00:00:00-04:00,151.41566994485422,151.4255616037469,146.2691681880173,150.43585205078125,431600,0.0,0.0
2025-05-05 00:00:00-04:00,149.87171511370832,151.64330372673837,149.32738692371552,149.92120361328125,267600,0.0,0.0
2025-05-06 00:00:00-04:00,148.70385505343256,150.47542844556375,147.8823943414243,149.36695861816406,312000,0.0,0.0
2025-05-07 00:00:00-04:00,150.31708590149762,151.57400611169496,149.0700422480403,149.83212280273438,318400,0.0,0.0
2025-05-08 00:00:00-04:00,150.2280090768683,152.9794155767693,149.68368089445295,151.7818603515625,302500,0.0,0.0
2025-05-09 00:00:00-04:00,152.3262040766549,152.71219020623604,151.3661845822508,151.74227905273438,231600,0.0,0.0
2025-05-12 00:00:00-04:00,154.18685794593227,154.97862867713158,152.11836842577424,153.91964721679688,352500,0.0,0.0
2025-05-13 00:00:00-04:00,154.70149791577734,154.70149791577734,151.62350059983459,152.05897521972656,339400,0.0,0.0
2025-05-14 00:00:00-04:00,152.03917218350202,152.03917218350202,149.4164479866586,150.91090393066406,350100,0.0,0.0
2025-05-15 00:00:00-04:00,150.78226337253412,153.88004414664275,150.78226337253412,153.35549926757812,278100,0.0,0.0
2025-05-16 00:00:00-04:00,153.58311686611248,155.5328458388272,152.9991918706902,155.394287109375,278600,0.0,0.0
2025-05-19 00:00:00-04:00,154.75099115410438,156.71061190187558,154.70150265455177,156.4532928466797,185400,0.0,0.0
2025-05-20 00:00:00-04:00,158.61085981265177,158.61085981265177,156.28505124401337,156.89866638183594,388100,0.0,0.0
2025-05-21 00:00:00-04:00,155.24584191636762,156.02770582263278,154.2264422794775,154.84005737304688,319800,0.0,0.0
2025-05-22 00:00:00-04:00,154.75098526112157,155.64171781206997,153.9592146037401,155.03799438476562,278900,0.0,0.0
2025-05-23 00:00:00-04:00,153.52374279798673,154.57283251997325,152.67259196852737,154.33531188964844,260500,0.0,0.0
2025-05-27 00:00:00-04:00,155.414094045831,156.80958817721682,155.07759641325802,156.532470703125,352800,0.0,0.0
2025-05-28 00:00:00-04:00,156.5324623428064,157.20545757200804,155.64171470785442,155.7802734375,364400,0.0,0.0
2025-05-29 00:00:00-04:00,156.20585933870413,157.03721173228786,155.20625813464056,156.70071411132812,232100,0.0,0.0
2025-05-30 00:00:00-04:00,156.61163171728145,157.14606818544306,154.929113539576,156.7699737548828,335100,0.0,0.0
2025-06-02 00:00:00-04:00,155.9188406286622,157.43311018008114,153.66230399382138,155.2953338623047,349600,0.0,0.0
2025-06-03 00:00:00-04:00,154.5728447318095,155.81988854661384,154.39470424499214,154.6520233154297,397800,0.0,0.0
2025-06-04 00:00:00-04:00,154.87966472871315,154.90935480933607,148.74345296929266,148.8622283935547,831900,0.0,0.0
2025-06-05 00:00:00-04:00,150.020182784306,151.76206624139414,147.51621870771746,150.9208221435547,482400,0.0,0.0
2025-06-06 00:00:00-04:00,152.7814504922549,152.89031914119013,150.64368945226,151.73236083984375,264700,0.0,0.0
2025-06-09 00:00:00-04:00,151.13854089220266,151.60369045281138,149.80242705741497,150.0399627685547,388400,0.0,0.0
2025-06-10 00:00:00-04:00,150.59421572449554,151.42556816056012,149.3075902295747,150.9604034423828,323500,0.0,0.0
2025-06-11 00:00:00-04:00,151.42557769613376,152.00950277001408,150.0399902154396,150.356689453125,380800,0.0,0.0
2025-06-12 00:00:00-04:00,149.85193948867737,153.02889896064863,149.85193948867737,152.76168823242188,337200,0.0,0.0
2025-06-13 00:00:00-04:00,151.42555404968616,152.1381461004144,149.17890924803547,149.6044921875,361200,0.0,0.0
2025-06-16 00:00:00-04:00,149.6836773033695,151.32658367380841,149.56490188854355,150.12904357910156,346200,0.0,0.0
2025-06-17 00:00:00-04:00,149.10964935607322,149.7034660446396,147.59539490266283,147.91209411621094,379700,0.0,0.0
2025-06-18 00:00:00-04:00,147.58546683475728,149.17889963695293,147.58546683475728,148.1595001220703,383200,0.0,0.0
2025-06-20 00:00:00-04:00,148.74343491461926,149.21850635046175,147.45682463907613,148.7533416748047,570500,0.0,0.0
2025-06-23 00:00:00-04:00,147.95168891304158,152.35589347493396,147.95168891304158,152.20742797851562,356500,0.0,0.0
2025-06-24 00:00:00-04:00,152.97941461142602,152.97941461142602,151.60370381927186,152.28660583496094,246600,0.0,0.0
2025-06-25 00:00:00-04:00,152.2767059703511,152.93980953052548,151.1979262277585,152.34597778320312,264700,0.0,0.0
2025-06-26 00:00:00-04:00,152.93980831973192,153.9790063184346,151.5443142958103,152.89031982421875,658200,0.0,0.0
2025-06-27 00:00:00-04:00,153.0684708614105,154.50354657824576,152.64288793470405,154.21653747558594,643100,0.0,0.0
2025-06-30 00:00:00-04:00,154.42438892115865,154.88955364503937,153.01900309007422,154.8202667236328,315500,0.0,0.0
2025-07-01 00:00:00-04:00,154.82026567822305,158.15559730371533,154.35511605925336,157.37371826171875,338300,0.0,0.0
2025-07-02 00:00:00-04:00,157.38363200923675,158.87808813686115,157.01742917130628,158.67025756835938,293500,0.0,0.0
2025-07-03 00:00:00-04:00,158.94736821912954,159.6995420804724,158.17539593723896,159.38282775878906,235100,0.0,0.0
2025-07-07 00:00:00-04:00,159.29375839991914,160.69914423117854,158.8978805973957,159.3036651611328,313900,0.0,0.0
2025-07-08 00:00:00-04:00,159.2442591859285,160.90697906856101,158.20507624877348,158.40301513671875,342700,0.0,0.0
2025-07-09 00:00:00-04:00,158.28424260248426,158.36342117945682,156.47308739815062,158.0863037109375,252800,0.0,0.0
2025-07-10 00:00:00-04:00,157.55186492431218,158.70982328004004,156.70071411132812,156.70071411132812,361600,0.0,0.0
2025-07-11 00:00:00-04:00,156.92834315017365,156.92834315017365,155.01821097581862,156.27513122558594,292000,0.0,0.0
2025-07-14 00:00:00-04:00,155.5229529652812,157.30443311701356,155.0775867027903,155.93862915039062,276600,0.0,0.0
2025-07-15 00:00:00-04:00,156.1168011741537,156.37412023917577,152.48456867448147,152.57363891601562,254200,0.0,0.0
2025-07-16 00:00:00-04:00,152.33607278001307,154.00868412340643,151.9698851255781,153.38516235351562,261900,0.0,0.0
2025-07-17 00:00:00-04:00,153.14764365419694,154.80045660108607,152.91999961050917,154.4243621826172,397700,0.0,0.0
2025-07-18 00:00:00-04:00,155.23594716196223,155.59224319991026,153.32579989964464,154.77078247070312,243100,0.0,0.0
2025-07-21 00:00:00-04:00,154.81036123899986,155.05778861889246,153.64251125475573,153.850341796875,205900,0.0,0.0
2025-07-22 00:00:00-04:00,154.50356503883077,157.7201212134062,153.63261576514859,157.53207397460938,449900,0.0,0.0
2025-07-23 00:00:00-04:00,158.4228252977522,160.18450720404206,157.502387503022,159.9964599609375,450500,0.0,0.0
2025-07-24 00:00:00-04:00,159.74832575248354,163.04332545328953,158.58711999706412,160.6018524169922,431900,0.45,0.0
2025-07-25 00:00:00-04:00,160.8301248100112,161.86228924605192,159.5696808618312,159.77810668945312,296300,0.0,0.0
2025-07-28 00:00:00-04:00,159.9865211622613,160.76064829360726,156.96941223290332,157.50534057617188,308500,0.0,0.0
2025-07-29 00:00:00-04:00,157.85271506176437,158.39857783036788,156.036489019279,157.62445068359375,388200,0.0,0.0
2025-07-30 00:00:00-04:00,157.604589521812,157.73360061087115,153.75379251207275,155.60971069335938,580700,0.0,0.0
2025-07-31 00:00:00-04:00,154.6073142621548,156.1655028465139,154.01182489938444,155.9570770263672,679700,0.0,0.0
2025-08-01 00:00:00-04:00,155.78836042379552,156.92969738141443,140.02789724626874,140.28594970703125,1012300,0.0,0.0
2025-08-04 00:00:00-04:00,142.04261109792537,142.04261109792537,136.04808589776894,138.08265686035156,839000,0.0,0.0
2025-08-05 00:00:00-04:00,138.2910636449433,140.0080513419761,136.65349067989766,139.16444396972656,540800,0.0,0.0
2025-08-06 00:00:00-04:00,139.2537809781534,139.7003904682946,136.5145629805525,137.49710083007812,515300,0.0,0.0
2025-08-07 00:00:00-04:00,138.74761061171503,140.42489098048776,137.8643109975234,139.4324188232422,564000,0.0,0.0
2025-08-08 00:00:00-04:00,139.63091429693503,140.98067707589914,139.52174175069808,139.69046020507812,428700,0.0,0.0
2025-08-11 00:00:00-04:00,140.26609366892225,140.55390393503043,138.1521230997788,138.81707763671875,349500,0.0,0.0
2025-08-12 00:00:00-04:00,139.16444275983682,140.0278886636534,138.1818899029979,138.4300079345703,286100,0.0,0.0
2025-08-13 00:00:00-04:00,138.63844918654183,140.3752756010035,138.2017589793064,140.36534118652344,729900,0.0,0.0
2025-08-14 00:00:00-04:00,139.13467885374612,139.13467885374612,135.41290813818017,137.29859924316406,875800,0.0,0.0
2025-08-15 00:00:00-04:00,137.31844490006762,137.90399982387856,136.832128103183,137.6757354736328,770500,0.0,0.0
2025-08-18 00:00:00-04:00,137.84446193662134,138.51935090102052,136.31606142653533,136.85198974609375,529500,0.0,0.0
2025-08-19 00:00:00-04:00,137.2291443142154,139.4622069103412,137.2291443142154,138.53919982910156,333100,0.0,0.0
2025-08-20 00:00:00-04:00,138.85678922638783,140.18669834070658,138.21167320961604,140.11721801757812,519200,0.0,0.0
2025-08-21 00:00:00-04:00,139.571379557282,140.8318084309671,139.18431597945528,139.581298828125,270400,0.0,0.0
2025-08-22 00:00:00-04:00,140.19662272353239,142.2510475228651,140.12715754179467,140.36534118652344,356500,0.0,0.0
2025-08-25 00:00:00-04:00,139.90880407770842,140.54398566556975,137.91394045268862,138.50941467285156,245800,0.0,0.0
2025-08-26 00:00:00-04:00,138.0231130894521,139.10490412913347,136.97107985967878,138.65829467773438,442900,0.0,0.0
2025-08-27 00:00:00-04:00,138.0429485121284,139.51181820629935,137.98340260580963,138.39031982421875,729100,0.0,0.0
2025-08-28 00:00:00-04:00,139.11483040361404,139.11483040361404,136.365678091318,137.84446716308594,320800,0.0,0.0
2025-08-29 00:00:00-04:00,138.12235011895848,138.81707760936152,137.30853081417874,138.2216033935547,370700,0.0,0.0
2025-09-02 00:00:00-04:00,136.3855243788287,137.4871690980893,135.1449341609192,135.3831329345703,310600,0.0,0.0
2025-09-03 00:00:00-04:00,135.05562942608722,135.15486756754578,133.42797549570034,134.2021026611328,382300,0.0,0.0
2025-09-04 00:00:00-04:00,135.3235923742518,137.43754789123142,134.02344105361325,137.41770935058594,401800,0.0,0.0
2025-09-05 00:00:00-04:00,137.97349027820903,139.7599432772732,136.59395451802803,137.5764923095703,440800,0.0,0.0
2025-09-08 00:00:00-04:00,137.54672141344943,138.9461108789868,136.6435680581942,137.2589111328125,616100,0.0,0.0
2025-09-09 00:00:00-04:00,137.21919336213278,138.43001059095468,134.08299289225738,136.018310546875,637100,0.0,0.0
2025-09-10 00:00:00-04:00,135.1052581464342,136.42524811392565,133.83489482239776,135.22434997558594,685100,0.0,0.0
2025-09-11 00:00:00-04:00,135.72057605320697,137.23905733793734,134.84719565375582,136.0679473876953,477500,0.0,0.0
2025-09-12 00:00:00-04:00,135.59154130836964,136.0183122109246,134.202086345472,134.21200561523438,261300,0.0,0.0
2025-09-15 00:00:00-04:00,134.94644868156496,135.14494009636334,133.61653954409923,133.8348846435547,298000,0.0,0.0
2025-09-16 00:00:00-04:00,133.77531755009446,134.40057986520893,133.0905244715447,134.19216918945312,474800,0.0,0.0
2025-09-17 00:00:00-04:00,134.4005909331664,136.03817924000734,133.1798543000121,133.63638305664062,377400,0.0,0.0
2025-09-18 00:00:00-04:00,133.88450115501576,134.4899098363819,133.06076250993905,133.48751831054688,254800,0.0,0.0
2025-09-19 00:00:00-04:00,133.64630834951197,134.08299853486403,132.33623779345575,133.42796325683594,877200,0.0,0.0
2025-09-22 00:00:00-04:00,133.11035640508263,133.92419081572487,131.67127485428063,131.7209014892578,402100,0.0,0.0
2025-09-23 00:00:00-04:00,132.00872186790292,132.9416481589146,130.97655744324732,131.02618408203125,319700,0.0,0.0
2025-09-24 00:00:00-04:00,131.00632212823788,132.30645820511924,130.35128688305517,130.5100860595703,353300,0.0,0.0
2025-09-25 00:00:00-04:00,130.51009416312277,131.52242004635977,129.28935759870177,129.83522033691406,388700,0.0,0.0
2025-09-26 00:00:00-04:00,130.34136367550963,131.4330739072408,129.97415384184546,131.29412841796875,274400,0.0,0.0
2025-09-29 00:00:00-04:00,131.40330307035197,131.68119405336847,130.3711387254224,131.2742919921875,540600,0.0,0.0
2025-09-30 00:00:00-04:00,130.71852133224422,132.75307724589,130.71852133224422,132.65383911132812,310400,0.0,0.0
2025-10-01 00:00:00-04:00,132.32631845773457,133.34856359842706,131.3139925870956,133.13021850585938,310100,0.0,0.0
2025-10-02 00:00:00-04:00,132.65384203252245,133.37834252086736,131.95911449959414,132.1774444580078,398500,0.0,0.0
2025-10-03 00:00:00-04:00,131.47279367640735,132.5744384252611,131.43308630777042,132.21714782714844,402000,0.0,0.0
2025-10-06 00:00:00-04:00,131.8896443867501,132.19730837916092,130.42078961140544,130.8872528076172,447100,0.0,0.0
2025-10-07 00:00:00-04:00,131.11551092866284,131.51249377525733,128.8328217009324,129.60694885253906,438800,0.0,0.0
2025-10-08 00:00:00-04:00,130.1924917880393,131.01624550512267,129.27941921033712,130.6192626953125,361300,0.0,0.0
2025-10-09 00:00:00-04:00,130.7085916497168,131.8400094033637,129.2198832820801,129.62680053710938,554200,0.0,0.0
2025-10-10 00:00:00-04:00,129.95430086831624,131.01623815413373,128.91220212112975,129.94436645507812,426000,0.0,0.0
2025-10-13 00:00:00-04:00,130.00393866771898,131.35370146275474,129.1801849261088,129.23973083496094,311400,0.0,0.0
2025-10-14 00:00:00-04:00,129.0610901520414,130.07341612989566,128.06861786032061,128.82290649414062,337400,0.0,0.0
2025-10-15 00:00:00-04:00,128.82289614269973,129.4084511132212,126.89749762844694,127.13569641113281,438300,0.0,0.0
2025-10-16 00:00:00-04:00,127.47313242398477,128.52515053818064,126.88756988565697,128.18771362304688,352700,0.0,0.0
2025-10-17 00:00:00-04:00,128.18771054309016,129.120636816335,127.88004658998253,128.36634826660156,339700,0.0,0.0
2025-10-20 00:00:00-04:00,128.63431403654306,129.1106964210944,127.05628697626973,129.02137756347656,240500,0.0,0.0
2025-10-21 00:00:00-04:00,129.6267893910326,130.7780607308871,128.14800042118895,129.58709716796875,311600,0.0,0.0
2025-10-22 00:00:00-04:00,129.66648758385847,131.11550366713516,129.001533023481,129.0809326171875,357500,0.0,0.0
2025-10-23 00:00:00-04:00,129.24032557401767,131.02342489019046,129.16063186156003,130.266357421875,378600,0.48,0.0
2025-10-24 00:00:00-04:00,130.2464294932207,130.38588968926612,128.04493439848073,128.38363647460938,489300,0.0,0.0
2025-10-27 00:00:00-04:00,128.64262593461441,129.39969337705932,127.95528098817398,128.2840118408203,521700,0.0,0.0
2025-10-28 00:00:00-04:00,128.25413419657656,128.61274830602028,126.9790651852259,127.60664367675781,413500,0.0,0.0
2025-10-29 00:00:00-04:00,126.78979272467178,127.00894663290282,122.94465851664737,123.83123016357422,651100,0.0,0.0
2025-10-30 00:00:00-04:00,123.5622752273834,125.03657092289914,122.56612661149028,123.88104248046875,702600,0.0,0.0
2025-10-31 00:00:00-04:00,114.84597369201094,117.64514884272785,102.8324239362538,115.56320190429688,2758200,0.0,0.0
2025-11-03 00:00:00-05:00,115.6428887968913,115.6428887968913,107.87293417806934,112.68433380126953,1661000,0.0,0.0
2025-11-04 00:00:00-05:00,113.919556689229,115.55323981656579,112.09660289225816,113.74024963378906,1029100,0.0,0.0
2025-11-05 00:00:00-05:00,113.88967105472761,115.59308424562619,112.33567407354856,115.12489318847656,896900,0.0,0.0
2025-11-06 00:00:00-05:00,114.57700684246853,116.50953752835609,113.36171195341622,115.7026596069336,880300,0.0,0.0
2025-11-07 00:00:00-05:00,115.78235588701804,116.46969325755225,114.24828612088064,115.77239227294922,697200,0.0,0.0
2025-11-10 00:00:00-05:00,115.5432729820834,116.32026766733067,113.56093941331017,115.93177032470703,514000,0.0,0.0
2025-11-11 00:00:00-05:00,116.50953904136568,119.04972100477185,116.50953904136568,117.81449127197266,484800,0.0,0.0
2025-11-12 00:00:00-05:00,117.8842173531296,119.20909676654827,117.45588076684714,117.70491790771484,547500,0.0,0.0
2025-11-13 00:00:00-05:00,117.8443842573739,121.41059052496826,117.8443842573739,119.737060546875,679400,0.0,0.0
2025-11-14 00:00:00-05:00,119.30871137736264,120.22517384155344,117.93402908109216,118.15318298339844,521200,0.0,0.0
2025-11-17 00:00:00-05:00,118.03364629792767,119.02979490477999,117.11719140362612,118.88037109375,820200,0.0,0.0
2025-11-18 00:00:00-05:00,119.19914484456227,119.64740867350712,117.60530100829023,118.8504867553711,817400,0.0,0.0
2025-11-19 00:00:00-05:00,119.04971870763417,119.04971870763417,117.25664822688579,117.5455322265625,598900,0.0,0.0
2025-11-20 00:00:00-05:00,117.54553065339863,119.14933045082296,116.91795979354102,118.12329864501953,507400,0.0,0.0
2025-11-21 00:00:00-05:00,117.67502837581664,121.76919962522595,117.67502837581664,121.05197143554688,509100,0.0,0.0
2025-11-24 00:00:00-05:00,120.38455190510423,121.92858521245563,119.9761349476823,121.00216674804688,740000,0.0,0.0
2025-11-25 00:00:00-05:00,121.93855251914646,123.60211884002427,121.93855251914646,122.96458435058594,543600,0.0,0.0
2025-11-26 00:00:00-05:00,122.54619448390098,124.04041734800323,122.54619448390098,123.3331527709961,538000,0.0,0.0
2025-11-28 00:00:00-05:00,123.1538497021488,125.5944183523718,123.1538497021488,124.26953887939453,315700,0.0,0.0
2025-12-01 00:00:00-05:00,124.3990349156279,124.47872862794028,122.5561615184654,122.8051986694336,536800,0.0,0.0
2025-12-02 00:00:00-05:00,123.29330872615562,123.38296605205076,120.33475377180815,121.13166809082031,325400,0.0,0.0
2025-12-03 00:00:00-05:00,120.98224589440565,123.78142866229517,120.94240663793282,121.58989715576172,543100,0.0,0.0
2025-12-04 00:00:00-05:00,121.72935588012562,123.60212011213446,121.46039910213004,121.550048828125,708000,0.0,0.0
2025-12-05 00:00:00-05:00,121.52016157322772,123.0343116512343,120.15544290029952,121.44047546386719,537000,0.0,0.0
2025-12-08 00:00:00-05:00,120.45428397361297,121.62973959717331,118.84052814466453,119.60755920410156,496600,0.0,0.0
2025-12-09 00:00:00-05:00,119.13936863432369,119.38840577929511,114.91570078361141,115.2743148803711,640300,0.0,0.0
2025-12-10 00:00:00-05:00,115.72257853337636,117.34630558024035,114.68658309979747,116.7187271118164,734700,0.0,0.0
2025-12-11 00:00:00-05:00,117.50568574674746,118.21295032752096,116.70877144165544,117.55549621582031,389700,0.0,0.0
2025-12-12 00:00:00-05:00,118.06352393728298,121.17151017917278,117.196879554456,121.00216674804688,656400,0.0,0.0
2025-12-15 00:00:00-05:00,121.01213143800062,121.98835277906521,120.01598286956141,121.85885620117188,588600,0.0,0.0
2025-12-16 00:00:00-05:00,122.19754617074564,123.37300181536564,119.0596765804455,122.35693359375,644800,0.0,0.0
2025-12-17 00:00:00-05:00,121.63970423659477,124.12011208349313,119.6175238264721,123.15384674072266,567300,0.0,0.0
2025-12-18 00:00:00-05:00,123.19369468787343,123.64196611478646,121.56001160314787,122.14774322509766,457100,0.0,0.0
2025-12-19 00:00:00-05:00,122.86496444856809,123.85115703275031,120.79298114041151,120.92247772216797,1300400,0.0,0.0
2025-12-22 00:00:00-05:00,120.92247390417073,123.22357466125312,120.60370666682594,122.26727294921875,527800,0.0,0.0
2025-12-23 00:00:00-05:00,122.39677984292547,122.55615966512936,120.85274649026779,121.71939849853516,311700,0.0,0.0
2025-12-24 00:00:00-05:00,122.0580830371269,122.69561751377475,121.29105198241356,122.27723693847656,198000,0.0,0.0
2025-12-26 00:00:00-05:00,121.89870630347777,123.00443185190434,121.25120819673985,122.77531433105469,306000,0.0,0.0
2025-12-29 00:00:00-05:00,122.81515971406309,123.83122792475147,121.84889437252,122.73546600341797,400200,0.0,0.0
2025-12-30 00:00:00-05:00,122.32704703122806,123.82126988128373,121.94850571187395,122.26727294921875,289800,0.0,0.0
2025-12-31 00:00:00-05:00,121.05197234327426,122.85500644474074,120.8826289083331,121.49028015136719,314300,0.0,0.0
2026-01-02 00:00:00-05:00,121.27112467453803,122.52627399961013,120.31482296020086,122.06804656982422,295100,0.0,0.0
2026-01-05 00:00:00-05:00,121.29105352059696,124.10019221895458,121.29105352059696,122.52627563476562,435700,0.0,0.0
2026-01-06 00:00:00-05:00,121.74928292899573,122.37685381006916,119.64740877808522,120.09567260742188,777200,0.0,0.0
2026-01-07 00:00:00-05:00,120.20524516718837,121.48031411070211,117.15703299910017,119.97613525390625,478500,0.0,0.0
2026-01-08 00:00:00-05:00,119.45813846313783,122.89485569818288,119.0596775025515,121.96843719482422,330000,0.0,0.0
2026-01-09 00:00:00-05:00,121.60982144195128,124.48869025314991,120.99220658141333,123.37300109863281,429100,0.0,0.0
2026-01-12 00:00:00-05:00,123.5224261097117,124.81742232667263,122.50635788410425,124.6480712890625,477300,0.0,0.0
2026-01-13 00:00:00-05:00,124.56838640898677,124.95688375791437,122.06805127613653,123.02435302734375,351900,0.0,0.0
2026-01-14 00:00:00-05:00,123.63200512032016,126.67026143373172,123.63200512032016,126.3614501953125,611700,0.0,0.0
2026-01-15 00:00:00-05:00,126.65033136548587,126.73002507684,124.04041931871804,124.6281509399414,381000,0.0,0.0
2026-01-16 00:00:00-05:00,123.52242596027686,124.71780123601722,122.76535089896896,124.22969055175781,363400,0.0,0.0
2026-01-20 00:00:00-05:00,124.41895904968523,125.0465299185149,122.9645830361994,123.3431167602539,275100,0.0,0.0
2026-01-21 00:00:00-05:00,123.8312253817379,125.13618516671866,123.4228084230874,124.52853393554688,421000,0.0,0.0
2026-01-22 00:00:00-05:00,124.56838384921164,125.9231465355853,123.58219127603556,123.99061584472656,369700,0.0,0.0
2026-01-23 00:00:00-05:00,123.8611143925338,125.79364512595791,123.39293093032236,125.51472473144531,429500,0.0,0.0
2026-01-26 00:00:00-05:00,125.93310290002078,126.50090729221316,124.61818706546947,125.86337280273438,315400,0.0,0.0
2026-01-27 00:00:00-05:00,124.46876518523668,125.8135718823247,123.69177048914806,124.25957489013672,303100,0.0,0.0
2026-01-28 00:00:00-05:00,123.72165370927159,124.58830573168342,122.77531557446258,123.22357940673828,347800,0.0,0.0
2026-01-29 00:00:00-05:00,123.81130890933785,124.7974938834136,122.1178517498024,123.37300109863281,386000,0.0,0.0
2026-01-30 00:00:00-05:00,122.43662879089985,124.52853934314632,122.18759163944166,124.46876525878906,512700,0.0,0.0
2026-02-02 00:00:00-05:00,123.72164944172175,125.42507018563877,123.72164944172175,124.34922790527344,489100,0.0,0.0
2026-02-03 00:00:00-05:00,123.43277330805162,127.43728722684571,123.21361940602614,124.14999389648438,658700,0.0,0.0
2026-02-04 00:00:00-05:00,125.70999908447266,130.4199981689453,124.69999694824219,129.22999572753906,589400,0.48,0.0
2026-02-05 00:00:00-05:00,127.66999816894531,129.0800018310547,121.95999908447266,123.9800033569336,2144200,0.0,0.0
2026-02-06 00:00:00-05:00,127.52999877929688,135.99000549316406,127.52999877929688,134.30999755859375,1045700,0.0,0.0
2026-02-09 00:00:00-05:00,133.5800018310547,139.57000732421875,133.25,138.47000122070312,1043400,0.0,0.0
2026-02-10 00:00:00-05:00,137.80999755859375,140.92999267578125,137.80999755859375,140.1699981689453,622100,0.0,0.0
2026-02-11 00:00:00-05:00,139.02999877929688,140.5500030517578,138.60000610351562,140.00999450683594,584300,0.0,0.0
2026-02-12 00:00:00-05:00,140.16000366210938,142.0,139.38999938964844,140.50999450683594,557900,0.0,0.0
