Date,Open,High,Low,Close,Volume,Dividends,Stock Splits
2024-02-26 00:00:00-05:00,138.01306592964593,138.5592636679826,137.3303187567251,138.42271423339844,199200,0.0,0.0
2024-02-27 00:00:00-05:00,138.42271239283323,138.67629994432565,136.3549595872609,136.85238647460938,244600,0.0,0.0
2024-02-28 00:00:00-05:00,136.20866994135125,137.75949968886704,135.89656327805793,136.949951171875,189600,0.0,0.0
2024-02-29 00:00:00-05:00,137.1645425247303,138.13990011388086,136.38425347685472,136.9987335205078,250600,0.0,0.0
2024-03-01 00:00:00-05:00,136.4330157255624,137.3205797647851,136.12089417299305,136.83290100097656,151400,0.0,0.0
2024-03-04 00:00:00-05:00,137.22305324462417,138.61780736846376,137.0962520032661,138.46176147460938,260300,0.0,0.0
2024-03-05 00:00:00-05:00,138.76411046328988,139.68094885998562,138.247172198391,139.00794982910156,190200,0.0,0.0
2024-03-06 00:00:00-05:00,139.40785398412316,140.10036442536463,138.96894604269377,139.54441833496094,184000,0.0,0.0
2024-03-07 00:00:00-05:00,140.93916679729554,141.56339503762655,140.29542723867368,141.08546447753906,250100,0.0,0.0
2024-03-08 00:00:00-05:00,141.1439931095105,141.49512241162816,139.44686566881276,139.56390380859375,185200,0.0,0.0
2024-03-11 00:00:00-04:00,139.27130541234575,139.84677770831638,138.48126813613334,139.22254943847656,226700,0.0,0.0
2024-03-12 00:00:00-04:00,139.28103881268925,139.32980965893432,137.99355990912852,138.90065002441406,242200,0.0,0.0
2024-03-13 00:00:00-04:00,139.47609614982582,139.47609614982582,137.45709936252808,137.6814422607422,336800,0.0,0.0
2024-03-14 00:00:00-04:00,137.87653425906194,138.1301218465984,136.9011767770037,137.45712280273438,235200,0.0,0.0
2024-03-15 00:00:00-04:00,136.5890561463724,138.90066351449275,136.2964608060305,137.52540588378906,599500,0.0,0.0
2024-03-18 00:00:00-04:00,137.45712279692614,137.8180151855588,135.5064078328921,135.82827758789062,299700,0.0,0.0
2024-03-19 00:00:00-04:00,135.4576479614325,136.8621650763059,135.4576479614325,136.07211303710938,253000,0.0,0.0
2024-03-20 00:00:00-04:00,136.18917973371362,136.61833943779183,135.71124917548556,136.5207977294922,220000,0.0,0.0
2024-03-21 00:00:00-04:00,136.85242344621867,138.11064309350476,135.86731762102508,137.66197204589844,255800,0.0,0.0
2024-03-22 00:00:00-04:00,138.5104936430902,138.93965326368587,137.57415890976537,138.10084533691406,276000,0.0,0.0
2024-03-25 00:00:00-04:00,137.7204797587387,140.50025466224227,137.69122022356706,139.43711853027344,316300,0.0,0.0
2024-03-26 00:00:00-04:00,139.31031084887593,140.75383575411502,139.1054792293693,139.6711883544922,314200,0.0,0.0
2024-03-27 00:00:00-04:00,140.12960559296673,141.57313047792877,140.12960559296673,141.09521484375,218200,0.0,0.0
2024-03-28 00:00:00-04:00,141.2512827346003,141.7682210279112,140.11010134303888,140.3441925048828,247800,0.0,0.0
2024-04-01 00:00:00-04:00,140.24662055448985,140.24662055448985,138.61777563855262,138.78358459472656,204400,0.0,0.0
2024-04-02 00:00:00-04:00,138.34469442065378,138.34469442065378,136.9304291224682,137.16452026367188,202600,0.0,0.0
2024-04-03 00:00:00-04:00,137.20353934586018,137.7107294189767,136.42325036016734,137.4083709716797,258700,0.0,0.0
2024-04-04 00:00:00-04:00,138.33495787722,139.232285003393,137.49614982059262,138.25692749023438,403600,0.0,0.0
2024-04-05 00:00:00-04:00,137.89604531062415,139.242028512989,137.4766338551034,138.23741149902344,288300,0.0,0.0
2024-04-08 00:00:00-04:00,138.1788883078863,138.87139864657004,136.93043196113197,137.04747009277344,312500,0.0,0.0
2024-04-09 00:00:00-04:00,136.95967637769692,137.6229271102668,135.92579997491075,136.85238647460938,242600,0.0,0.0
2024-04-10 00:00:00-04:00,135.55518013032452,136.76462877873269,135.03824184996014,135.96482849121094,200700,0.0,0.0
2024-04-11 00:00:00-04:00,135.82827866294963,136.58905631432242,135.0382414775067,135.7014923095703,265300,0.0,0.0
2024-04-12 00:00:00-04:00,134.765143986109,135.52592164547036,132.60961224550994,133.8190460205078,299200,0.0,0.0
2024-04-15 00:00:00-04:00,135.19428791765284,136.3647138047215,134.43351034691958,134.7943878173828,319600,0.0,0.0
2024-04-16 00:00:00-04:00,134.39450046903713,135.95507838838475,133.9751038968422,135.17478942871094,281700,0.0,0.0
2024-04-17 00:00:00-04:00,135.45766906073504,136.04287469456995,134.940730720265,134.98948669433594,565400,0.0,0.0
2024-04-18 00:00:00-04:00,134.97970257950664,136.0038307698305,134.81389361654325,135.6819610595703,246600,0.0,0.0
2024-04-19 00:00:00-04:00,135.63321212465888,136.47202017340777,135.35036499692032,135.90631103515625,276600,0.0,0.0
2024-04-22 00:00:00-04:00,136.11113793918858,137.67170096180095,135.81852772158192,136.86216735839844,298800,0.0,0.0
2024-04-23 00:00:00-04:00,136.32570914394802,137.68145534635985,136.08186979183958,136.6963348388672,417200,0.0,0.0
2024-04-24 00:00:00-04:00,136.90177371391562,137.83107896631418,136.598528150901,136.96046447753906,559200,0.41,0.0
2024-04-25 00:00:00-04:00,136.79417905028185,138.17347180247913,135.8942191136086,137.12677001953125,694400,0.0,0.0
2024-04-26 00:00:00-04:00,138.907142184169,145.27534452627617,138.80931428247655,140.2081756591797,489500,0.0,0.0
2024-04-29 00:00:00-04:00,141.7439515679202,144.79600552411128,141.2254966026468,143.1917266845703,676700,0.0,0.0
2024-04-30 00:00:00-04:00,142.56566921431133,142.91782871752156,140.9222532238501,141.23529052734375,585100,0.0,0.0
2024-05-01 00:00:00-04:00,141.83201133324172,144.00365921492568,141.43093786715573,142.21351623535156,359600,0.0,0.0
2024-05-02 00:00:00-04:00,142.58522633954087,143.5341001651165,142.1254621178108,142.7417449951172,356500,0.0,0.0
2024-05-03 00:00:00-04:00,143.905819193012,143.92538775533887,141.68525755175847,143.6123504638672,303300,0.0,0.0
2024-05-06 00:00:00-04:00,144.54165813146784,145.83291459114125,143.95473558961254,145.7937774658203,260200,0.0,0.0
2024-05-07 00:00:00-04:00,145.0894683068579,147.10459732337995,145.0894683068579,146.45896911621094,392900,0.0,0.0
2024-05-08 00:00:00-04:00,146.4589742681547,147.58392033494945,146.22419629553286,147.5056610107422,223500,0.0,0.0
2024-05-09 00:00:00-04:00,147.71109528278453,148.42519110044378,145.39272061672744,145.83291625976562,299100,0.0,0.0
2024-05-10 00:00:00-04:00,145.70574027513976,145.75465421821906,144.86447120407098,145.25576782226562,186300,0.0,0.0
2024-05-13 00:00:00-04:00,145.2949050252629,146.2242103339786,143.66128065750254,144.64927673339844,167500,0.0,0.0
2024-05-14 00:00:00-04:00,145.06991603597936,145.07969285484432,144.257992276957,144.67861938476562,137600,0.0,0.0
2024-05-15 00:00:00-04:00,144.73734046927026,145.10905366940162,143.5732570635824,144.0721435546875,211100,0.0,0.0
2024-05-16 00:00:00-04:00,144.16016631041785,144.67862131957352,143.24063782581982,144.3264617919922,235500,0.0,0.0
2024-05-17 00:00:00-04:00,144.62970048169964,144.94272283319833,143.92538153277894,144.45361328125,169500,0.0,0.0
2024-05-20 00:00:00-04:00,144.37536485042523,145.1775117408084,143.837341317417,144.94273376464844,163400,0.0,0.0
2024-05-21 00:00:00-04:00,144.71775538951601,145.4416280673695,143.88626307277843,145.3535919189453,280400,0.0,0.0
2024-05-22 00:00:00-04:00,144.84492077803603,145.58836197942233,144.25798330095628,145.54922485351562,283300,0.0,0.0
2024-05-23 00:00:00-04:00,145.4220766972729,145.70575371098772,144.34602955606266,144.50254821777344,171700,0.0,0.0
2024-05-24 00:00:00-04:00,145.24600690781847,145.58838965560824,144.15040599719987,144.864501953125,162300,0.0,0.0
2024-05-28 00:00:00-04:00,144.40470973047522,144.56122838070533,142.64392715792664,143.51454162597656,318400,0.0,0.0
2024-05-29 00:00:00-04:00,142.4776274189923,143.50476061409208,141.3624580739689,141.68527221679688,229700,0.0,0.0
2024-05-30 00:00:00-04:00,141.96895892606543,143.77865551127988,141.8417856521232,142.9569549560547,328100,0.0,0.0
2024-05-31 00:00:00-04:00,142.9080336791022,144.61014039312926,142.74173821286894,144.4731903076172,358900,0.0,0.0
2024-06-03 00:00:00-04:00,145.26557439720267,145.26557439720267,143.09392623230076,144.9329833984375,266200,0.0,0.0
2024-06-04 00:00:00-04:00,144.4340488422392,145.15793637330214,143.5047436523007,144.96229553222656,287900,0.0,0.0
2024-06-05 00:00:00-04:00,144.50255553730506,144.97209661978007,143.87649578519103,144.6981964111328,229200,0.0,0.0
2024-06-06 00:00:00-04:00,144.7862212470873,144.7862212470873,142.2330684881502,142.7808837890625,197600,0.0,0.0
2024-06-07 00:00:00-04:00,142.59503121697097,143.14283163549774,142.28199387698888,142.37982177734375,179100,0.0,0.0
2024-06-10 00:00:00-04:00,141.67550401275804,142.6341547541383,140.85380337728924,142.4189453125,125800,0.0,0.0
2024-06-11 00:00:00-04:00,141.7537411225742,142.56566481118944,141.20594078481926,142.3308868408203,147700,0.0,0.0
2024-06-12 00:00:00-04:00,143.05477521985793,143.1232427992556,140.93204143549355,142.65370178222656,221300,0.0,0.0
2024-06-13 00:00:00-04:00,142.7123925435502,143.3384522084022,141.86134665147762,142.65370178222656,232400,0.0,0.0
2024-06-14 00:00:00-04:00,141.92981994909997,142.21351187551372,140.5505272966644,141.59722900390625,141500,0.0,0.0
2024-06-17 00:00:00-04:00,141.71461561671782,143.48519004157248,141.42116178774597,143.142822265625,303800,0.0,0.0
2024-06-18 00:00:00-04:00,143.28954725443802,144.47319907900086,143.27977043575066,143.49497985839844,219900,0.0,0.0
2024-06-20 00:00:00-04:00,143.46563231018484,144.3166782428008,142.49718992288908,142.63414001464844,199900,0.0,0.0
2024-06-21 00:00:00-04:00,142.6928388933288,143.93518153479198,142.14503849513946,143.65150451660156,444100,0.0,0.0
2024-06-24 00:00:00-04:00,144.01344742154828,145.0014435470762,143.4754238179669,143.5243377685547,182900,0.0,0.0
2024-06-25 00:00:00-04:00,143.59277441460273,143.60256615847544,141.3526592542617,141.70481872558594,194500,0.0,0.0
2024-06-26 00:00:00-04:00,141.10812684702637,141.6363586745215,139.84623058185173,140.57989501953125,192400,0.0,0.0
2024-06-27 00:00:00-04:00,140.73638916015625,140.74618090491342,139.1712474223484,140.73638916015625,377300,0.0,0.0
2024-06-28 00:00:00-04:00,140.64835418559142,141.17660090790503,137.03872298006291,137.7430419921875,435100,0.0,0.0
2024-07-01 00:00:00-04:00,138.30064553329024,138.39845850468294,135.3757645347683,135.52249145507812,306400,0.0,0.0
2024-07-02 00:00:00-04:00,135.4637706669389,137.4397773390453,134.7594517526522,137.34194946289062,259400,0.0,0.0
2024-07-03 00:00:00-04:00,137.81152831067402,138.32019155737456,137.50828274109926,138.1441192626953,143300,0.0,0.0
2024-07-05 00:00:00-04:00,137.9191362809392,138.35933195448024,136.68657048329493,137.83108520507812,207000,0.0,0.0
2024-07-08 00:00:00-04:00,138.56476077675615,139.3962531697491,138.41803384925964,138.4278106689453,249300,0.0,0.0
2024-07-09 00:00:00-04:00,137.7919693677499,138.1930428577772,136.70614536209172,136.9898223876953,238400,0.0,0.0
2024-07-10 00:00:00-04:00,137.68435364407958,138.54519132431884,137.50828135118005,138.21258544921875,142000,0.0,0.0
2024-07-11 00:00:00-04:00,138.12454847030526,140.1788147670624,137.6843528142689,138.9951629638672,244500,0.0,0.0
2024-07-12 00:00:00-04:00,140.28642803925482,142.32112589674372,140.28642803925482,141.4407196044922,263900,0.0,0.0
2024-07-15 00:00:00-04:00,141.60701793371598,142.5167696280142,140.02230747283468,140.3059844970703,319900,0.0,0.0
2024-07-16 00:00:00-04:00,140.71684962202943,142.1352645949935,140.71684962202943,141.411376953125,178800,0.0,0.0
2024-07-17 00:00:00-04:00,141.19614061668676,142.59500168454977,141.19614061668676,141.70481872558594,242300,0.0,0.0
2024-07-18 00:00:00-04:00,141.46029340871593,144.04279176071282,141.45051658924618,143.0939178466797,434200,0.0,0.0
2024-07-19 00:00:00-04:00,143.39715857359943,143.39715857359943,141.50920255553004,142.76132202148438,251200,0.0,0.0
2024-07-22 00:00:00-04:00,142.81022503932832,144.34602140714523,142.08633746461317,143.9840850830078,235700,0.0,0.0
2024-07-23 00:00:00-04:00,144.64927385495375,145.27533356981945,142.49719451800544,142.859130859375,234500,0.0,0.0
2024-07-24 00:00:00-04:00,142.88848966890302,143.43629004785507,140.7657408108026,141.00051879882812,250600,0.0,0.0
2024-07-25 00:00:00-04:00,140.15660524482195,141.35377129744543,138.57673955066704,138.84169006347656,558100,0.45,0.0
2024-07-26 00:00:00-04:00,140.45102021979721,148.45827695933554,139.68562078861478,143.91494750976562,562800,0.0,0.0
2024-07-29 00:00:00-04:00,143.83643364775924,145.57330838450207,142.45282131555413,145.03359985351562,390900,0.0,0.0
2024-07-30 00:00:00-04:00,144.6214530331883,145.13170927031027,142.68832486399208,143.02195739746094,411000,0.0,0.0
2024-07-31 00:00:00-04:00,143.75794652488804,146.06396735603042,142.68835174499176,144.2289581298828,280600,0.0,0.0
2024-08-01 00:00:00-04:00,144.13079821317172,146.7409986425237,142.7079264139435,144.27798461914062,335300,0.0,0.0
2024-08-02 00:00:00-04:00,143.83643005460556,144.24856702073956,141.0593980219817,142.9630889892578,213500,0.0,0.0
2024-08-05 00:00:00-04:00,140.7453719354448,140.7453719354448,136.86930822483086,138.04684448242188,448500,0.0,0.0
2024-08-06 00:00:00-04:00,138.6846766528486,143.35557660683716,138.46879327521364,142.21728515625,476000,0.0,0.0
2024-08-07 00:00:00-04:00,143.27709635686887,144.5036998578895,140.78464463099738,140.91221618652344,353600,0.0,0.0
2024-08-08 00:00:00-04:00,141.75612338985297,143.42430119656396,141.75612338985297,142.8355255126953,268600,0.0,0.0
2024-08-09 00:00:00-04:00,142.68834053710287,142.68834053710287,140.78464944274444,141.2556610107422,263200,0.0,0.0
2024-08-12 00:00:00-04:00,141.2752971107165,141.48135813006314,140.09776065202757,140.60801696777344,221100,0.0,0.0
2024-08-13 00:00:00-04:00,140.82388188168525,142.58038638691872,140.42156733432256,141.66778564453125,212000,0.0,0.0
2024-08-14 00:00:00-04:00,141.43229456951534,142.09955968550838,140.80427417726833,141.2065887451172,115700,0.0,0.0
2024-08-15 00:00:00-04:00,142.2859890142112,144.58218689853118,142.2859890142112,144.25836181640625,277500,0.0,0.0
2024-08-16 00:00:00-04:00,143.37521760611233,144.09154979316477,142.88457625025995,143.9738006591797,250600,0.0,0.0
2024-08-19 00:00:00-04:00,143.5812884602749,144.96488565497833,143.18876640563337,144.2191162109375,191200,0.0,0.0
2024-08-20 00:00:00-04:00,144.2289295518495,145.53403736223893,144.2289295518495,145.33778381347656,387200,0.0,0.0
2024-08-21 00:00:00-04:00,145.39666627862889,146.77047114096155,144.6999638967002,146.5349578857422,267300,0.0,0.0
2024-08-22 00:00:00-04:00,146.77047026304288,147.58492178111612,145.88730679114315,146.20132446289062,200400,0.0,0.0
2024-08-23 00:00:00-04:00,146.85877669525328,147.71248787736351,146.64289329719546,147.62417602539062,221400,0.0,0.0
2024-08-26 00:00:00-04:00,147.85969784755844,149.81245617803793,147.32981167813776,147.3494415283203,235500,0.0,0.0
2024-08-27 00:00:00-04:00,147.2022204683962,148.7035818834596,147.03540419707656,148.3699493408203,208300,0.0,0.0
2024-08-28 00:00:00-04:00,148.10498448417383,149.12552683416214,148.10498448417383,148.7035675048828,249000,0.0,0.0
2024-08-29 00:00:00-04:00,149.69469909242366,150.04796151105094,148.3797836904395,149.42974853515625,187100,0.0,0.0
2024-08-30 00:00:00-04:00,149.35121764870436,150.568013535751,148.8017017555817,150.32269287109375,178500,0.0,0.0
2024-09-03 00:00:00-04:00,149.26293690812489,149.52788747366,146.92747890247884,147.23167419433594,362400,0.0,0.0
2024-09-04 00:00:00-04:00,146.79991305774996,148.07556872083794,146.79991305774996,147.90875244140625,175800,0.0,0.0
2024-09-05 00:00:00-04:00,148.25220343795263,148.9194685377967,147.14334911082645,147.89894104003906,200600,0.0,0.0
2024-09-06 00:00:00-04:00,147.56528209121217,150.25398683076713,147.56528209121217,149.52784729003906,319100,0.0,0.0
2024-09-09 00:00:00-04:00,149.71433118090496,150.19515019318135,148.60547677217497,149.06668090820312,241500,0.0,0.0
2024-09-10 00:00:00-04:00,149.027410959184,149.93018931971082,148.60546655104966,148.6741485595703,158100,0.0,0.0
2024-09-11 00:00:00-04:00,147.96762598087645,148.05595281199558,145.84806652457317,148.01669311523438,178000,0.0,0.0
2024-09-12 00:00:00-04:00,148.06575815275983,149.16479007551516,147.1629797914698,149.11573791503906,200400,0.0,0.0
2024-09-13 00:00:00-04:00,149.34143667379635,150.14608081038824,149.0568562673864,149.42974853515625,138600,0.0,0.0
2024-09-16 00:00:00-04:00,150.175486478919,150.30305801170454,149.22365610712973,150.12643432617188,182900,0.0,0.0
2024-09-17 00:00:00-04:00,151.11752528224721,152.65814620114944,149.02738848530092,150.16567993164062,259900,0.0,0.0
2024-09-18 00:00:00-04:00,150.88202856716077,152.5796584864247,149.85169366969927,150.2049560546875,214200,0.0,0.0
2024-09-19 00:00:00-04:00,152.11844037953324,155.837495029552,152.11844037953324,153.96324157714844,412400,0.0,0.0
2024-09-20 00:00:00-04:00,153.38431316379166,153.38431316379166,151.5885638302304,152.99180603027344,663300,0.0,0.0
2024-09-23 00:00:00-04:00,153.24690874861972,153.97306329567752,151.84368175453616,153.0408477783203,315800,0.0,0.0
2024-09-24 00:00:00-04:00,153.25672927528666,154.1398927144178,153.1095428553579,153.6983184814453,246200,0.0,0.0
2024-09-25 00:00:00-04:00,154.3557850842914,154.9151084857173,152.95254291560093,154.1987762451172,284100,0.0,0.0
2024-09-26 00:00:00-04:00,154.98380629667253,156.0828382303956,154.74829303665166,155.4155731201172,371600,0.0,0.0
2024-09-27 00:00:00-04:00,155.7099344145292,158.52622599531733,155.29779746999125,156.8972930908203,354300,0.0,0.0
2024-09-30 00:00:00-04:00,156.30853265162236,157.4173870214277,155.95527024011193,157.1916961669922,289800,0.0,0.0
2024-10-01 00:00:00-04:00,157.53512293074894,157.53512293074894,156.07302124547277,156.97579956054688,192200,0.0,0.0
2024-10-02 00:00:00-04:00,156.86786522775682,157.1131859218467,155.00343394194854,155.7786407470703,186900,0.0,0.0
2024-10-03 00:00:00-04:00,155.03284190645007,157.4566111035122,153.70810441963394,155.96505737304688,367000,0.0,0.0
2024-10-04 00:00:00-04:00,156.9463814303736,158.44774299307275,156.3477982929245,157.57440185546875,350500,0.0,0.0
2024-10-07 00:00:00-04:00,156.4066673148656,156.65198801866413,155.05249223847767,155.7197723388672,223300,0.0,0.0
2024-10-08 00:00:00-04:00,155.31741937724777,156.04357394137241,154.15951301700102,155.7001190185547,205900,0.0,0.0
2024-10-09 00:00:00-04:00,155.38613840116977,157.05431617761042,155.16043257497606,156.7108612060547,152600,0.0,0.0
2024-10-10 00:00:00-04:00,155.09175379452122,156.3968617511509,155.09175379452122,156.23985290527344,168500,0.0,0.0
2024-10-11 00:00:00-04:00,157.92766198842554,158.88931497501125,157.34870870887204,158.5262451171875,194400,0.0,0.0
2024-10-14 00:00:00-04:00,161.90183478487612,164.6199770281407,160.40047348213315,164.06065368652344,469700,0.0,0.0
2024-10-15 00:00:00-04:00,164.1882359553576,166.48443398334234,163.37376948084616,165.52276611328125,397300,0.0,0.0
2024-10-16 00:00:00-04:00,165.5424057896614,166.03304719091895,162.81444079652437,162.93218994140625,330000,0.0,0.0
2024-10-17 00:00:00-04:00,163.85458770692577,165.16951795794049,163.40320603158116,164.74755859375,238200,0.0,0.0
2024-10-18 00:00:00-04:00,165.93492848190388,165.93492848190388,164.63962799086934,165.47372436523438,171500,0.0,0.0
2024-10-21 00:00:00-04:00,165.31672635975664,165.33635620965566,163.18734432795657,163.21678161621094,217900,0.0,0.0
2024-10-22 00:00:00-04:00,162.61818533475102,163.2560131596747,161.72521440130814,162.7064971923828,228500,0.0,0.0
2024-10-23 00:00:00-04:00,163.39339265700085,164.83587956219833,163.04995266297445,164.51205444335938,318100,0.0,0.0
2024-10-24 00:00:00-04:00,165.61406215698588,165.6238959901865,163.47893428707053,163.8725128173828,547300,0.45,0.0
2024-10-25 00:00:00-04:00,166.20439865201706,167.11945554985263,161.9636896762729,166.19456481933594,518900,0.0,0.0
2024-10-28 00:00:00-04:00,167.1686578390729,168.65439247657514,166.04698523900794,166.38153076171875,350000,0.0,0.0
2024-10-29 00:00:00-04:00,166.31262693046665,166.76523845233498,164.94497354589777,165.98793029785156,338100,0.0,0.0
2024-10-30 00:00:00-04:00,165.64357635714168,167.4638263639047,165.41726307531505,166.31263732910156,290300,0.0,0.0
2024-10-31 00:00:00-04:00,166.37167045155186,167.5425421666506,165.1614483906913,165.2106475830078,329900,0.0,0.0
2024-11-01 00:00:00-04:00,165.39760088847163,168.2411401404729,164.92530664304553,166.68653869628906,316300,0.0,0.0
2024-11-04 00:00:00-05:00,166.90297832397601,167.82786898356716,165.4762769799135,165.55499267578125,191800,0.0,0.0
2024-11-05 00:00:00-05:00,165.04339079182503,167.6212664555782,165.04339079182503,167.5720672607422,206200,0.0,0.0
2024-11-06 00:00:00-05:00,172.33425000176234,172.33425000176234,169.37264472673408,170.37625122070312,264100,0.0,0.0
2024-11-07 00:00:00-05:00,171.39952591463276,172.63927953265434,170.75013259219153,171.90133666992188,412300,0.0,0.0
2024-11-08 00:00:00-05:00,171.89147621002377,174.98099618606105,171.6848606299699,172.93443298339844,309200,0.0,0.0
2024-11-11 00:00:00-05:00,173.48544125861645,175.16794244855342,173.07218007543688,173.3181610107422,189100,0.0,0.0
2024-11-12 00:00:00-05:00,173.8101212713204,174.39064768351193,172.1374539294353,172.87539672851562,179800,0.0,0.0
2024-11-13 00:00:00-05:00,172.67861938476562,173.55431092811477,172.23585669673247,172.67861938476562,168400,0.0,0.0
2024-11-14 00:00:00-05:00,172.3342401368319,172.96395074115134,171.11418428604836,171.30113220214844,198200,0.0,0.0
2024-11-15 00:00:00-05:00,170.18929849303566,170.96659167816782,163.498613744456,163.8134765625,620500,0.0,0.0
2024-11-18 00:00:00-05:00,163.71507377564353,165.1220925590242,161.68819323282284,164.01025390625,384400,0.0,0.0
2024-11-19 00:00:00-05:00,163.74459395748048,164.97449868466995,163.52812952441627,164.2168731689453,287600,0.0,0.0
2024-11-20 00:00:00-05:00,164.3152721102554,166.2240866554903,162.98696899498788,166.0174560546875,221800,0.0,0.0
2024-11-21 00:00:00-05:00,165.97809989223597,167.49333586223904,165.04337533185526,167.1489715576172,205100,0.0,0.0
2024-11-22 00:00:00-05:00,167.44414141383476,169.30377176809216,167.44414141383476,168.7527618408203,241600,0.0,0.0
2024-11-25 00:00:00-05:00,169.28408971773192,171.2224207696019,168.97907574743007,169.7268524169922,270100,0.0,0.0
2024-11-26 00:00:00-05:00,170.08107094911196,170.08107094911196,168.40840346938074,169.2742462158203,140300,0.0,0.0
2024-11-27 00:00:00-05:00,169.89412910089996,171.08468356339304,168.76262268063928,168.96923828125,167200,0.0,0.0
2024-11-29 00:00:00-05:00,169.81541184718648,170.70095231078196,169.3234499274622,170.17947387695312,117300,0.0,0.0
2024-12-02 00:00:00-05:00,170.19913044726937,170.32704534237342,168.0935341686711,169.982666015625,170900,0.0,0.0
2024-12-03 00:00:00-05:00,170.6615867781975,170.6615867781975,168.33952591889235,169.6284637451172,160100,0.0,0.0
2024-12-04 00:00:00-05:00,169.12665553642208,170.11057930241756,168.28048049712658,169.81539916992188,173400,0.0,0.0
2024-12-05 00:00:00-05:00,169.24472446643097,169.66781950002706,167.78852147173296,168.349365234375,245000,0.0,0.0
2024-12-06 00:00:00-05:00,168.84133731004735,169.87444533346505,168.10339442847106,168.3985595703125,209200,0.0,0.0
2024-12-09 00:00:00-05:00,168.80196758361805,170.68126567667068,167.49334710584512,168.04434204101562,301700,0.0,0.0
2024-12-10 00:00:00-05:00,167.9754513911462,168.61499577600304,165.48612568863498,168.1623992919922,287000,0.0,0.0
2024-12-11 00:00:00-05:00,169.11682172045118,171.30113368225736,168.98890682654377,169.53990173339844,418600,0.0,0.0
2024-12-12 00:00:00-05:00,168.91017752026903,169.8252343560531,168.03448603951009,168.8806610107422,178300,0.0,0.0
2024-12-13 00:00:00-05:00,168.16241388859282,168.25096342400062,167.0899405904716,167.4638214111328,153200,0.0,0.0
2024-12-16 00:00:00-05:00,167.40480894815065,168.1821022102278,164.89580004237837,164.93516540527344,236100,0.0,0.0
2024-12-17 00:00:00-05:00,164.2168715592174,164.22672040556904,160.22214344662177,160.46812438964844,511900,0.0,0.0
2024-12-18 00:00:00-05:00,161.0584938335201,161.77675402430012,155.3714153078394,155.66659545898438,468600,0.0,0.0
2024-12-19 00:00:00-05:00,155.961750589169,158.97256992147132,155.68625313604096,156.3159637451172,404700,0.0,0.0
2024-12-20 00:00:00-05:00,156.16836637484445,157.21132306469937,154.93846178520732,155.6370391845703,730200,0.0,0.0
2024-12-23 00:00:00-05:00,154.64331540050958,156.34549951994808,154.43669979194954,155.97161865234375,194900,0.0,0.0
2024-12-24 00:00:00-05:00,156.2274252507946,156.8571359043753,155.38125015253118,156.78826904296875,100500,0.0,0.0
2024-12-26 00:00:00-05:00,155.8732153599991,157.06376983088433,155.8732153599991,156.2963104248047,164500,0.0,0.0
2024-12-27 00:00:00-05:00,155.28286230113363,157.01456279519272,155.07623169589766,155.6075439453125,145000,0.0,0.0
2024-12-30 00:00:00-05:00,154.47603655450243,154.9581646212153,152.50818895508203,154.2103729248047,221700,0.0,0.0
2024-12-31 00:00:00-05:00,154.7515314475807,155.70593871852984,153.66920928047796,154.57443237304688,317100,0.0,0.0
2025-01-02 00:00:00-05:00,155.11558622782664,155.56819779682613,150.983109132969,151.68170166015625,239400,0.0,0.0
2025-01-03 00:00:00-05:00,151.56363233363172,153.2166323077347,150.41244316174144,153.0001678466797,250700,0.0,0.0
2025-01-06 00:00:00-05:00,151.52424827363242,152.15395883474972,149.00540602916325,150.46160888671875,369000,0.0,0.0
2025-01-07 00:00:00-05:00,153.4134004022987,153.55114913672944,150.14678112287606,150.9634246826172,361200,0.0,0.0
2025-01-08 00:00:00-05:00,150.43210592610473,151.78007669861915,149.64496390044135,151.67184448242188,228600,0.0,0.0
2025-01-10 00:00:00-05:00,150.2648483292892,151.81944978034818,150.12709959380228,150.9831085205078,350800,0.0,0.0
2025-01-13 00:00:00-05:00,150.47147260654185,152.21302208769376,150.47147260654185,151.41604614257812,349300,0.0,0.0
2025-01-14 00:00:00-05:00,152.321247708254,152.95095836713358,151.0126271956554,152.1244659423828,196900,0.0,0.0
2025-01-15 00:00:00-05:00,153.6101684725972,154.39731046210895,151.69152019493302,153.05917358398438,206100,0.0,0.0
2025-01-16 00:00:00-05:00,153.38387849846134,154.64329974427918,152.81320090059305,153.89552307128906,346300,0.0,0.0
2025-01-17 00:00:00-05:00,154.44650033779234,155.41074133471753,153.17723039054363,153.5806427001953,231900,0.0,0.0
2025-01-21 00:00:00-05:00,154.20054018392875,157.68362385364128,154.20054018392875,157.2605438232422,270900,0.0,0.0
2025-01-22 00:00:00-05:00,156.77840494744063,158.165741022476,155.7944812085761,156.51275634765625,280000,0.0,0.0
2025-01-23 00:00:00-05:00,155.9125842726185,157.2408724994754,155.1943090321577,157.05392456054688,149800,0.0,0.0
2025-01-24 00:00:00-05:00,157.08343034805782,157.89025507917765,154.69250269490755,155.75514221191406,329600,0.0,0.0
2025-01-27 00:00:00-05:00,155.70593654111983,156.36516366514172,154.1316525043463,155.91256713867188,317000,0.0,0.0
2025-01-28 00:00:00-05:00,155.0368884561647,157.77219556170596,155.0368884561647,155.8732147216797,204300,0.0,0.0
2025-01-29 00:00:00-05:00,156.22742529455388,156.2667906554997,154.10214620806633,154.5842742919922,265800,0.0,0.0
2025-01-30 00:00:00-05:00,155.28286139023555,156.1290214456585,154.06279047284826,155.58787536621094,274200,0.0,0.0
2025-01-31 00:00:00-05:00,155.3615542633782,156.82760605708947,154.2398817878796,154.6236114501953,834100,0.0,0.0
2025-02-03 00:00:00-05:00,152.09495520009364,154.2300682184693,151.6620262906558,153.47244262695312,364600,0.0,0.0
2025-02-04 00:00:00-05:00,153.58066175061302,155.91257135685308,153.58066175061302,155.16477966308594,302400,0.0,0.0
2025-02-05 00:00:00-05:00,156.18111830402617,157.54282355753207,155.6877485810399,156.22059631347656,262600,0.45,0.0
2025-02-06 00:00:00-05:00,157.72042754941586,157.72042754941586,153.30970107401376,154.37538146972656,446600,0.0,0.0
2025-02-07 00:00:00-05:00,155.5298778454868,155.80616370572014,140.15647436444476,141.28135681152344,1221500,0.0,0.0
2025-02-10 00:00:00-05:00,142.34702053857654,142.6825233777481,139.0315755496425,141.38002014160156,621900,0.0,0.0
2025-02-11 00:00:00-05:00,140.38344377372283,141.17283844626513,138.4000875886983,140.40316772460938,377300,0.0,0.0
2025-02-12 00:00:00-05:00,139.1006834490033,141.58727147169137,138.07446582724882,139.8209991455078,423500,0.0,0.0
2025-02-13 00:00:00-05:00,140.8570462749457,141.87338663024207,139.5841591015714,140.8767852783203,665900,0.0,0.0
2025-02-14 00:00:00-05:00,141.78459078054618,143.38310383541634,140.8274523311255,142.8699951171875,512800,0.0,0.0
2025-02-18 00:00:00-05:00,142.870005422231,145.3368541695041,141.99180787045978,144.9520263671875,489600,0.0,0.0
2025-02-19 00:00:00-05:00,144.20210468941022,145.53420898859972,143.6791339779238,145.0901641845703,331000,0.0,0.0
2025-02-20 00:00:00-05:00,145.0211024557617,145.46513221009104,143.9850229913602,144.7349395751953,283100,0.0,0.0
2025-02-21 00:00:00-05:00,145.08029719584493,145.43552399292116,143.2745622320782,144.39944458007812,451900,0.0,0.0
2025-02-24 00:00:00-05:00,144.2415718652718,145.33685330480253,142.44571381729563,143.67913818359375,353300,0.0,0.0
2025-02-25 00:00:00-05:00,143.94556191982593,146.3630706640838,143.78767998754833,145.7512969970703,336700,0.0,0.0
2025-02-26 00:00:00-05:00,144.70532706157428,147.2017765403377,144.67572608407497,144.69546508789062,735600,0.0,0.0
2025-02-27 00:00:00-05:00,144.2909024211125,145.22830186694557,143.4324439363373,143.69886779785156,262800,0.0,0.0
2025-02-28 00:00:00-05:00,144.2218282465463,145.0013457148953,142.71211823261322,144.8040008544922,348700,0.0,0.0
2025-03-03 00:00:00-05:00,145.02108393632108,146.86628170864006,143.75805876881054,144.6461181640625,394100,0.0,0.0
2025-03-04 00:00:00-05:00,143.61007113706088,145.98811712663067,143.21538132959623,144.00477600097656,490100,0.0,0.0
2025-03-05 00:00:00-05:00,144.11329675818794,146.87617017338948,144.11329675818794,146.4716033935547,445100,0.0,0.0
2025-03-06 00:00:00-05:00,145.60326942274776,149.4910252271253,145.10989970252623,149.14566040039062,471700,0.0,0.0
2025-03-07 00:00:00-05:00,148.5141409364155,151.32635423503427,147.2017757341566,150.75404357910156,480200,0.0,0.0
2025-03-10 00:00:00-04:00,150.053488824128,151.95788890604916,148.24775366217168,148.57337951660156,391100,0.0,0.0
2025-03-11 00:00:00-04:00,148.3464026408534,148.56348652047885,145.31712041299642,145.92889404296875,304000,0.0,0.0
2025-03-12 00:00:00-04:00,146.27425230822007,146.27425230822007,143.62978291883215,144.0935516357422,299700,0.0,0.0
2025-03-13 00:00:00-04:00,144.4685375765296,145.24805517702276,141.85366879945948,142.8404083251953,238400,0.0,0.0
2025-03-14 00:00:00-04:00,143.30416473163334,144.94215581645253,142.62331210863928,144.7152099609375,223600,0.0,0.0
2025-03-17 00:00:00-04:00,144.56719705134603,146.0374443096502,143.92582240634974,145.8795623779297,225200,0.0,0.0
2025-03-18 00:00:00-04:00,145.43552774451433,145.57367066602694,143.8468766188945,144.3599853515625,219900,0.0,0.0
2025-03-19 00:00:00-04:00,144.39946262988383,145.5046211680697,143.54100403649673,145.03097534179688,279600,0.0,0.0
2025-03-20 00:00:00-04:00,144.19222682146875,145.4651139650872,141.8240433346598,143.27455139160156,332800,0.0,0.0
2025-03-21 00:00:00-04:00,142.09047886169986,143.53112506388518,140.4722267880329,142.8996124267578,601900,0.0,0.0
2025-03-24 00:00:00-04:00,143.81728593179704,146.2150557531693,142.98842834340545,146.027587890625,463800,0.0,0.0
2025-03-25 00:00:00-04:00,146.5209599792752,147.25113760406427,143.99489410489926,145.2579345703125,325200,0.0,0.0
2025-03-26 00:00:00-04:00,145.10002533045295,146.72813924549115,144.3599708133542,146.58999633789062,630400,0.0,0.0
2025-03-27 00:00:00-04:00,146.3137189545147,147.90237001169604,145.08029468826984,147.36953735351562,312700,0.0,0.0
2025-03-28 00:00:00-04:00,147.31033425484426,148.01092592907992,143.82714500249594,144.98162841796875,239800,0.0,0.0
2025-03-31 00:00:00-04:00,144.63626533277775,147.11297584539574,144.16263462913676,146.4123992919922,372500,0.0,0.0
2025-04-01 00:00:00-04:00,146.90577987752815,148.04052426681275,145.42567064466144,147.12286376953125,240000,0.0,0.0
2025-04-02 00:00:00-04:00,146.03744014019475,149.12593946933157,146.03744014019475,148.5338897705078,247600,0.0,0.0
2025-04-03 00:00:00-04:00,144.81388652544504,148.06026797764568,144.51787671462446,146.6985626220703,352900,0.0,0.0
2025-04-04 00:00:00-04:00,143.2943120074954,145.99798366938302,138.18299354627644,138.32113647460938,531600,0.0,0.0
2025-04-07 00:00:00-04:00,134.53204819675787,140.23540080963647,129.11485844577496,132.8644561767578,629900,0.0,0.0
2025-04-08 00:00:00-04:00,135.55827586465514,137.46267585200042,129.5391589570541,131.88760375976562,473800,0.0,0.0
2025-04-09 00:00:00-04:00,131.41395257461977,142.50490940034226,129.57863165389583,141.8437957763672,491800,0.0,0.0
2025-04-10 00:00:00-04:00,138.1435312694075,141.46883859689996,135.74576148947023,138.89344787597656,309000,0.0,0.0
2025-04-11 00:00:00-04:00,139.00199411611828,142.79108539083197,137.88698867483097,142.19903564453125,203000,0.0,0.0
2025-04-14 00:00:00-04:00,143.8666122599438,144.45864688553394,141.88325636462724,143.8567352294922,249300,0.0,0.0
2025-04-15 00:00:00-04:00,144.16264136826962,144.59679408397406,141.86353661587313,142.03128051757812,250700,0.0,0.0
2025-04-16 00:00:00-04:00,142.14968721036126,143.88635833288447,140.67945501993827,143.0772247314453,307700,0.0,0.0
2025-04-17 00:00:00-04:00,143.4719025184702,143.827129304186,138.84410738694922,141.9227294921875,390600,0.0,0.0
2025-04-21 00:00:00-04:00,141.39978475645773,142.1398394410975,139.22896069280472,140.6893310546875,291600,0.0,0.0
2025-04-22 00:00:00-04:00,142.5838614223611,144.87310434841834,141.68592484068608,144.08370971679688,217800,0.0,0.0
2025-04-23 00:00:00-04:00,145.90917104553122,147.33995542451333,145.26779636674308,146.0867919921875,537000,0.0,0.0
2025-04-24 00:00:00-04:00,145.96836437930722,149.98440129908244,143.53113171013078,149.45156860351562,424500,0.0,0.0
2025-04-25 00:00:00-04:00,148.84966144070935,150.97114536939864,145.61315704514936,147.08338928222656,220500,0.0,0.0
2025-04-28 00:00:00-04:00,147.81356949185763,149.02725477385636,146.3137213438059,147.7148895263672,235200,0.0,0.0
2025-04-29 00:00:00-04:00,147.7740980537582,149.9646608882986,147.03404344902023,148.30694580078125,359900,0.0,0.0
2025-04-30 00:00:00-04:00,147.09324271727854,148.0010411161194,145.25790691671284,147.96156311035156,556200,0.0,0.0
2025-05-01 00:00:00-04:00,146.92238394801444,148.98098168406787,145.44772634078012,146.75413513183594,445300,0.45,0.0
2025-05-02 00:00:00-04:00,151.41566994485422,151.4255616037469,146.2691681880173,150.43585205078125,431600,0.0,0.0
2025-05-05 00:00:00-04:00,149.87171511370832,151.64330372673837,149.32738692371552,149.92120361328125,267600,0.0,0.0
2025-05-06 00:00:00-04:00,148.70385505343256,150.47542844556375,147.8823943414243,149.36695861816406,312000,0.0,0.0
2025-05-07 00:00:00-04:00,150.31710120967497,151.57402154787607,149.07005742921967,149.83213806152344,318400,0.0,0.0
2025-05-08 00:00:00-04:00,150.2280090768683,152.9794155767693,149.68368089445295,151.7818603515625,302500,0.0,0.0
2025-05-09 00:00:00-04:00,152.3262040766549,152.71219020623604,151.3661845822508,151.74227905273438,231600,0.0,0.0
2025-05-12 00:00:00-04:00,154.18684266065333,154.97861331336063,152.1183533455545,153.9196319580078,352500,0.0,0.0
2025-05-13 00:00:00-04:00,154.70149791577734,154.70149791577734,151.62350059983459,152.05897521972656,339400,0.0,0.0
2025-05-14 00:00:00-04:00,152.03917218350202,152.03917218350202,149.4164479866586,150.91090393066406,350100,0.0,0.0
2025-05-15 00:00:00-04:00,150.78226337253412,153.88004414664275,150.78226337253412,153.35549926757812,278100,0.0,0.0
2025-05-16 00:00:00-04:00,153.58311686611248,155.5328458388272,152.9991918706902,155.394287109375,278600,0.0,0.0
2025-05-19 00:00:00-04:00,154.75099115410438,156.71061190187558,154.70150265455177,156.4532928466797,185400,0.0,0.0
2025-05-20 00:00:00-04:00,158.61084438734758,158.61084438734758,156.28503604489993,156.89865112304688,388100,0.0,0.0
2025-05-21 00:00:00-04:00,155.24584191636762,156.02770582263278,154.2264422794775,154.84005737304688,319800,0.0,0.0
2025-05-22 00:00:00-04:00,154.75098526112157,155.64171781206997,153.9592146037401,155.03799438476562,278900,0.0,0.0
2025-05-23 00:00:00-04:00,153.52374279798673,154.57283251997325,152.67259196852737,154.33531188964844,260500,0.0,0.0
2025-05-27 00:00:00-04:00,155.4141091956007,156.80960346301933,155.0776115302259,156.53248596191406,352800,0.0,0.0
2025-05-28 00:00:00-04:00,156.5324623428064,157.20545757200804,155.64171470785442,155.7802734375,364400,0.0,0.0
2025-05-29 00:00:00-04:00,156.20587454930651,157.03722702384349,155.2062732479064,156.7007293701172,232100,0.0,0.0
2025-05-30 00:00:00-04:00,156.61164696065873,157.14608348083826,154.9291286191898,156.76998901367188,335100,0.0,0.0
2025-06-02 00:00:00-04:00,155.9188406286622,157.43311018008114,153.66230399382138,155.2953338623047,349600,0.0,0.0
2025-06-03 00:00:00-04:00,154.57282948083264,155.819873172597,154.39468901159154,154.65200805664062,397800,0.0,0.0
2025-06-04 00:00:00-04:00,154.87964885312024,154.90933893069985,148.7434377226784,148.86221313476562,831900,0.0,0.0
2025-06-05 00:00:00-04:00,150.020182784306,151.76206624139414,147.51621870771746,150.9208221435547,482400,0.0,0.0
2025-06-06 00:00:00-04:00,152.7814504922549,152.89031914119013,150.64368945226,151.73236083984375,264700,0.0,0.0
2025-06-09 00:00:00-04:00,151.1385562627151,151.6037058706287,149.8024422920471,150.03997802734375,388400,0.0,0.0
2025-06-10 00:00:00-04:00,150.59421572449554,151.42556816056012,149.3075902295747,150.9604034423828,323500,0.0,0.0
2025-06-11 00:00:00-04:00,151.4255623288697,152.009487343491,150.0399749887904,150.35667419433594,380800,0.0,0.0
2025-06-12 00:00:00-04:00,149.85193948867737,153.02889896064863,149.85193948867737,152.76168823242188,337200,0.0,0.0
2025-06-13 00:00:00-04:00,151.42556949421294,152.13816161762142,149.17892446341756,149.60450744628906,361200,0.0,0.0
2025-06-16 00:00:00-04:00,149.6836773033695,151.32658367380841,149.56490188854355,150.12904357910156,346200,0.0,0.0
2025-06-17 00:00:00-04:00,149.10963397374292,149.70345060105046,147.5953796765448,147.91207885742188,379700,0.0,0.0
2025-06-18 00:00:00-04:00,147.5854820344273,149.17891500072886,147.5854820344273,148.15951538085938,383200,0.0,0.0
2025-06-20 00:00:00-04:00,148.74343491461926,149.21850635046175,147.45682463907613,148.7533416748047,570500,0.0,0.0
2025-06-23 00:00:00-04:00,147.95168891304158,152.35589347493396,147.95168891304158,152.20742797851562,356500,0.0,0.0
2025-06-24 00:00:00-04:00,152.97939928321904,152.97939928321904,151.60368862890812,152.28659057617188,246600,0.0,0.0
2025-06-25 00:00:00-04:00,152.2767059703511,152.93980953052548,151.1979262277585,152.34597778320312,264700,0.0,0.0
2025-06-26 00:00:00-04:00,152.93982358346005,153.97902168587697,151.54432942026506,152.8903350830078,658200,0.0,0.0
2025-06-27 00:00:00-04:00,153.06848600660535,154.5035618654326,152.64290303779003,154.216552734375,643100,0.0,0.0
2025-06-30 00:00:00-04:00,154.42437370138657,154.8895383794215,153.01898800881426,154.82025146484375,315500,0.0,0.0
2025-07-01 00:00:00-04:00,154.82025066701402,158.1555819691161,154.35510109314475,157.3737030029297,338300,0.0,0.0
2025-07-02 00:00:00-04:00,157.3836168741782,158.87807285808572,157.0174140714642,158.6702423095703,293500,0.0,0.0
2025-07-03 00:00:00-04:00,158.94736821912954,159.6995420804724,158.17539593723896,159.38282775878906,235100,0.0,0.0
2025-07-07 00:00:00-04:00,159.29375839991914,160.69914423117854,158.8978805973957,159.3036651611328,313900,0.0,0.0
2025-07-08 00:00:00-04:00,159.2442745257537,160.90699456855415,158.2050914884953,158.4030303955078,342700,0.0,0.0
2025-07-09 00:00:00-04:00,158.28422732458975,158.36340589391986,156.47307229507223,158.08628845214844,252800,0.0,0.0
2025-07-10 00:00:00-04:00,157.55188026598236,158.7098387344668,156.7007293701172,156.7007293701172,361600,0.0,0.0
2025-07-11 00:00:00-04:00,156.92834315017365,156.92834315017365,155.01821097581862,156.27513122558594,292000,0.0,0.0
2025-07-14 00:00:00-04:00,155.52296818339582,157.30444850944824,155.0776018773253,155.9386444091797,276600,0.0,0.0
2025-07-15 00:00:00-04:00,156.1167855610153,156.37410460030307,152.48455342460028,152.57362365722656,254200,0.0,0.0
2025-07-16 00:00:00-04:00,152.3361030888639,154.0087147650407,151.96991536157202,153.38519287109375,261900,0.0,0.0
2025-07-17 00:00:00-04:00,153.14765878683247,154.8004718970373,152.920014720651,154.42437744140625,397700,0.0,0.0
2025-07-18 00:00:00-04:00,155.23594716196223,155.59224319991026,153.32579989964464,154.77078247070312,243100,0.0,0.0
2025-07-21 00:00:00-04:00,154.8103765930031,155.0578039974354,153.64252649293226,153.85035705566406,205900,0.0,0.0
2025-07-22 00:00:00-04:00,154.50355007338754,157.7201059364026,153.6326008840668,157.5320587158203,449900,0.0,0.0
2025-07-23 00:00:00-04:00,158.4228252977522,160.18450720404206,157.502387503022,159.9964599609375,450500,0.0,0.0
2025-07-24 00:00:00-04:00,159.748340930179,163.04334094404305,158.58713506443337,160.60186767578125,431900,0.45,0.0
2025-07-25 00:00:00-04:00,160.8301248100112,161.86228924605192,159.5696808618312,159.77810668945312,296300,0.0,0.0
2025-07-28 00:00:00-04:00,159.9865211622613,160.76064829360726,156.96941223290332,157.50534057617188,308500,0.0,0.0
2025-07-29 00:00:00-04:00,157.85271506176437,158.39857783036788,156.036489019279,157.62445068359375,388200,0.0,0.0
2025-07-30 00:00:00-04:00,157.604589521812,157.73360061087115,153.75379251207275,155.60971069335938,580700,0.0,0.0
2025-07-31 00:00:00-04:00,154.6073142621548,156.1655028465139,154.01182489938444,155.9570770263672,679700,0.0,0.0
2025-08-01 00:00:00-04:00,155.78836042379552,156.92969738141443,140.02789724626874,140.28594970703125,1012300,0.0,0.0
2025-08-04 00:00:00-04:00,142.04262679430818,142.04262679430818,136.04810093172827,138.08267211914062,839000,0.0,0.0
2025-08-05 00:00:00-04:00,138.29107880796994,140.00806669326315,136.6535056633714,139.16445922851562,540800,0.0,0.0
2025-08-06 00:00:00-04:00,139.2537809781534,139.7003904682946,136.5145629805525,137.49710083007812,515300,0.0,0.0
2025-08-07 00:00:00-04:00,138.74761061171503,140.42489098048776,137.8643109975234,139.4324188232422,564000,0.0,0.0
2025-08-08 00:00:00-04:00,139.63091429693503,140.98067707589914,139.52174175069808,139.69046020507812,428700,0.0,0.0
2025-08-11 00:00:00-04:00,140.26609366892225,140.55390393503043,138.1521230997788,138.81707763671875,349500,0.0,0.0
2025-08-12 00:00:00-04:00,139.16444275983682,140.0278886636534,138.1818899029979,138.4300079345703,286100,0.0,0.0
2025-08-13 00:00:00-04:00,138.63843411547916,140.37526034113446,138.2017439557153,140.36532592773438,729900,0.0,0.0
2025-08-14 00:00:00-04:00,139.13467885374612,139.13467885374612,135.41290813818017,137.29859924316406,875800,0.0,0.0
2025-08-15 00:00:00-04:00,137.31844490006762,137.90399982387856,136.832128103183,137.6757354736328,770500,0.0,0.0
2025-08-18 00:00:00-04:00,137.84446193662134,138.51935090102052,136.31606142653533,136.85198974609375,529500,0.0,0.0
2025-08-19 00:00:00-04:00,137.2291443142154,139.4622069103412,137.2291443142154,138.53919982910156,333100,0.0,0.0
2025-08-20 00:00:00-04:00,138.85678922638783,140.18669834070658,138.21167320961604,140.11721801757812,519200,0.0,0.0
2025-08-21 00:00:00-04:00,139.571379557282,140.8318084309671,139.18431597945528,139.581298828125,270400,0.0,0.0
2025-08-22 00:00:00-04:00,140.1966074830843,142.25103205908528,140.127142308898,140.36532592773438,356500,0.0,0.0
2025-08-25 00:00:00-04:00,139.90880407770842,140.54398566556975,137.91394045268862,138.50941467285156,245800,0.0,0.0
2025-08-26 00:00:00-04:00,138.0231130894521,139.10490412913347,136.97107985967878,138.65829467773438,442900,0.0,0.0
2025-08-27 00:00:00-04:00,138.0429485121284,139.51181820629935,137.98340260580963,138.39031982421875,729100,0.0,0.0
2025-08-28 00:00:00-04:00,139.11481500420123,139.11481500420123,136.3656629962245,137.84445190429688,320800,0.0,0.0
2025-08-29 00:00:00-04:00,138.12235011895848,138.81707760936152,137.30853081417874,138.2216033935547,370700,0.0,0.0
2025-09-02 00:00:00-04:00,136.3855243788287,137.4871690980893,135.1449341609192,135.3831329345703,310600,0.0,0.0
2025-09-03 00:00:00-04:00,135.05562942608722,135.15486756754578,133.42797549570034,134.2021026611328,382300,0.0,0.0
2025-09-04 00:00:00-04:00,135.3235923742518,137.43754789123142,134.02344105361325,137.41770935058594,401800,0.0,0.0
2025-09-05 00:00:00-04:00,137.97349027820903,139.7599432772732,136.59395451802803,137.5764923095703,440800,0.0,0.0
2025-09-08 00:00:00-04:00,137.54672141344943,138.9461108789868,136.6435680581942,137.2589111328125,616100,0.0,0.0
2025-09-09 00:00:00-04:00,137.21920875563913,138.43002612029278,134.0830079339389,136.01832580566406,637100,0.0,0.0
2025-09-10 00:00:00-04:00,135.1052581464342,136.42524811392565,133.83489482239776,135.22434997558594,685100,0.0,0.0
2025-09-11 00:00:00-04:00,135.72057605320697,137.23905733793734,134.84719565375582,136.0679473876953,477500,0.0,0.0
2025-09-12 00:00:00-04:00,135.59154130836964,136.0183122109246,134.202086345472,134.21200561523438,261300,0.0,0.0
2025-09-15 00:00:00-04:00,134.94644868156496,135.14494009636334,133.61653954409923,133.8348846435547,298000,0.0,0.0
2025-09-16 00:00:00-04:00,133.77531755009446,134.40057986520893,133.0905244715447,134.19216918945312,474800,0.0,0.0
2025-09-17 00:00:00-04:00,134.400575587119,136.0381637069778,133.17983909335013,133.63636779785156,377400,0.0,0.0
2025-09-18 00:00:00-04:00,133.88448585084808,134.48989446301076,133.0607472999319,133.4875030517578,254800,0.0,0.0
2025-09-19 00:00:00-04:00,133.64632363327092,134.0830138685628,132.33625292739535,133.427978515625,877200,0.0,0.0
2025-09-22 00:00:00-04:00,133.11037182482866,133.92420632974697,131.67129010732083,131.72091674804688,402100,0.0,0.0
2025-09-23 00:00:00-04:00,132.00872186790292,132.9416481589146,130.97655744324732,131.02618408203125,319700,0.0,0.0
2025-09-24 00:00:00-04:00,131.00633744504515,132.30647367393394,130.35130212327797,130.51010131835938,353300,0.0,0.0
2025-09-25 00:00:00-04:00,130.51009416312277,131.52242004635977,129.28935759870177,129.83522033691406,388700,0.0,0.0
2025-09-26 00:00:00-04:00,130.34137882356993,131.4330891821779,129.97416894722923,131.2941436767578,274400,0.0,0.0
2025-09-29 00:00:00-04:00,131.40330307035197,131.68119405336847,130.3711387254224,131.2742919921875,540600,0.0,0.0
2025-09-30 00:00:00-04:00,130.71852133224422,132.75307724589,130.71852133224422,132.65383911132812,310400,0.0,0.0
2025-10-01 00:00:00-04:00,132.32631845773457,133.34856359842706,131.3139925870956,133.13021850585938,310100,0.0,0.0
2025-10-02 00:00:00-04:00,132.65384203252245,133.37834252086736,131.95911449959414,132.1774444580078,398500,0.0,0.0
2025-10-03 00:00:00-04:00,131.47279367640735,132.5744384252611,131.43308630777042,132.21714782714844,402000,0.0,0.0
2025-10-06 00:00:00-04:00,131.8896290111026,132.19729296764606,130.4207744069965,130.88723754882812,447100,0.0,0.0
2025-10-07 00:00:00-04:00,131.11549549226888,131.51247829212605,128.8328065332823,129.60693359375,438800,0.0,0.0
2025-10-08 00:00:00-04:00,130.1924917880393,131.01624550512267,129.27941921033712,130.6192626953125,361300,0.0,0.0
2025-10-09 00:00:00-04:00,130.70857626358662,131.83999388405067,129.21986807119058,129.6267852783203,554200,0.0,0.0
2025-10-10 00:00:00-04:00,129.95430086831624,131.01623815413373,128.91220212112975,129.94436645507812,426000,0.0,0.0
2025-10-13 00:00:00-04:00,130.00393866771898,131.35370146275474,129.1801849261088,129.23973083496094,311400,0.0,0.0
2025-10-14 00:00:00-04:00,129.0610901520414,130.07341612989566,128.06861786032061,128.82290649414062,337400,0.0,0.0
2025-10-15 00:00:00-04:00,128.82289614269973,129.4084511132212,126.89749762844694,127.13569641113281,438300,0.0,0.0
2025-10-16 00:00:00-04:00,127.47313242398477,128.52515053818064,126.88756988565697,128.18771362304688,352700,0.0,0.0
2025-10-17 00:00:00-04:00,128.18771054309016,129.120636816335,127.88004658998253,128.36634826660156,339700,0.0,0.0
2025-10-20 00:00:00-04:00,128.63431403654306,129.1106964210944,127.05628697626973,129.02137756347656,240500,0.0,0.0
2025-10-21 00:00:00-04:00,129.6267893910326,130.7780607308871,128.14800042118895,129.58709716796875,311600,0.0,0.0
2025-10-22 00:00:00-04:00,129.66648758385847,131.11550366713516,129.001533023481,129.0809326171875,357500,0.0,0.0
2025-10-23 00:00:00-04:00,129.24032557401767,131.02342489019046,129.16063186156003,130.266357421875,378600,0.48,0.0
2025-10-24 00:00:00-04:00,130.2464294932207,130.38588968926612,128.04493439848073,128.38363647460938,489300,0.0,0.0
2025-10-27 00:00:00-04:00,128.64262593461441,129.39969337705932,127.95528098817398,128.2840118408203,521700,0.0,0.0
2025-10-28 00:00:00-04:00,128.25413419657656,128.61274830602028,126.9790651852259,127.60664367675781,413500,0.0,0.0
2025-10-29 00:00:00-04:00,126.78979272467178,127.00894663290282,122.94465851664737,123.83123016357422,651100,0.0,0.0
2025-10-30 00:00:00-04:00,123.5622752273834,125.03657092289914,122.56612661149028,123.88104248046875,702600,0.0,0.0
2025-10-31 00:00:00-04:00,114.84597369201094,117.64514884272785,102.8324239362538,115.56320190429688,2758200,0.0,0.0
2025-11-03 00:00:00-05:00,115.6428887968913,115.6428887968913,107.87293417806934,112.68433380126953,1661000,0.0,0.0
2025-11-04 00:00:00-05:00,113.919556689229,115.55323981656579,112.09660289225816,113.74024963378906,1029100,0.0,0.0
2025-11-05 00:00:00-05:00,113.88967105472761,115.59308424562619,112.33567407354856,115.12489318847656,896900,0.0,0.0
2025-11-06 00:00:00-05:00,114.57700684246853,116.50953752835609,113.36171195341622,115.7026596069336,880300,0.0,0.0
2025-11-07 00:00:00-05:00,115.78235588701804,116.46969325755225,114.24828612088064,115.77239227294922,697200,0.0,0.0
2025-11-10 00:00:00-05:00,115.5432729820834,116.32026766733067,113.56093941331017,115.93177032470703,514000,0.0,0.0
2025-11-11 00:00:00-05:00,116.50953904136568,119.04972100477185,116.50953904136568,117.81449127197266,484800,0.0,0.0
2025-11-12 00:00:00-05:00,117.8842173531296,119.20909676654827,117.45588076684714,117.70491790771484,547500,0.0,0.0
2025-11-13 00:00:00-05:00,117.8443842573739,121.41059052496826,117.8443842573739,119.737060546875,679400,0.0,0.0
2025-11-14 00:00:00-05:00,119.30871137736264,120.22517384155344,117.93402908109216,118.15318298339844,521200,0.0,0.0
2025-11-17 00:00:00-05:00,118.03364629792767,119.02979490477999,117.11719140362612,118.88037109375,820200,0.0,0.0
2025-11-18 00:00:00-05:00,119.19914484456227,119.64740867350712,117.60530100829023,118.8504867553711,817400,0.0,0.0
2025-11-19 00:00:00-05:00,119.04971870763417,119.04971870763417,117.25664822688579,117.5455322265625,598900,0.0,0.0
2025-11-20 00:00:00-05:00,117.54553065339863,119.14933045082296,116.91795979354102,118.12329864501953,507400,0.0,0.0
2025-11-21 00:00:00-05:00,117.67502837581664,121.76919962522595,117.67502837581664,121.05197143554688,509100,0.0,0.0
2025-11-24 00:00:00-05:00,120.38455190510423,121.92858521245563,119.9761349476823,121.00216674804688,740000,0.0,0.0
2025-11-25 00:00:00-05:00,121.93855251914646,123.60211884002427,121.93855251914646,122.96458435058594,543600,0.0,0.0
2025-11-26 00:00:00-05:00,122.54619448390098,124.04041734800323,122.54619448390098,123.3331527709961,538000,0.0,0.0
2025-11-28 00:00:00-05:00,123.1538497021488,125.5944183523718,123.1538497021488,124.26953887939453,315700,0.0,0.0
2025-12-01 00:00:00-05:00,124.3990349156279,124.47872862794028,122.5561615184654,122.8051986694336,536800,0.0,0.0
2025-12-02 00:00:00-05:00,123.29330872615562,123.38296605205076,120.33475377180815,121.13166809082031,325400,0.0,0.0
2025-12-03 00:00:00-05:00,120.98224589440565,123.78142866229517,120.94240663793282,121.58989715576172,543100,0.0,0.0
2025-12-04 00:00:00-05:00,121.72935588012562,123.60212011213446,121.46039910213004,121.550048828125,708000,0.0,0.0
2025-12-05 00:00:00-05:00,121.52016157322772,123.0343116512343,120.15544290029952,121.44047546386719,537000,0.0,0.0
2025-12-08 00:00:00-05:00,120.45428397361297,121.62973959717331,118.84052814466453,119.60755920410156,496600,0.0,0.0
2025-12-09 00:00:00-05:00,119.13936863432369,119.38840577929511,114.91570078361141,115.2743148803711,640300,0.0,0.0
2025-12-10 00:00:00-05:00,115.72257853337636,117.34630558024035,114.68658309979747,116.7187271118164,734700,0.0,0.0
2025-12-11 00:00:00-05:00,117.50568574674746,118.21295032752096,116.70877144165544,117.55549621582031,389700,0.0,0.0
2025-12-12 00:00:00-05:00,118.06352393728298,121.17151017917278,117.196879554456,121.00216674804688,656400,0.0,0.0
2025-12-15 00:00:00-05:00,121.01213143800062,121.98835277906521,120.01598286956141,121.85885620117188,588600,0.0,0.0
2025-12-16 00:00:00-05:00,122.19754617074564,123.37300181536564,119.0596765804455,122.35693359375,644800,0.0,0.0
2025-12-17 00:00:00-05:00,121.63970423659477,124.12011208349313,119.6175238264721,123.15384674072266,567300,0.0,0.0
2025-12-18 00:00:00-05:00,123.19369468787343,123.64196611478646,121.56001160314787,122.14774322509766,457100,0.0,0.0
2025-12-19 00:00:00-05:00,122.86496444856809,123.85115703275031,120.79298114041151,120.92247772216797,1300400,0.0,0.0
2025-12-22 00:00:00-05:00,120.92247390417073,123.22357466125312,120.60370666682594,122.26727294921875,527800,0.0,0.0
2025-12-23 00:00:00-05:00,122.39677984292547,122.55615966512936,120.85274649026779,121.71939849853516,311700,0.0,0.0
2025-12-24 00:00:00-05:00,122.0580830371269,122.69561751377475,121.29105198241356,122.27723693847656,198000,0.0,0.0
2025-12-26 00:00:00-05:00,121.89870630347777,123.00443185190434,121.25120819673985,122.77531433105469,306000,0.0,0.0
2025-12-29 00:00:00-05:00,122.81515971406309,123.83122792475147,121.84889437252,122.73546600341797,400200,0.0,0.0
2025-12-30 00:00:00-05:00,122.32704703122806,123.82126988128373,121.94850571187395,122.26727294921875,289800,0.0,0.0
2025-12-31 00:00:00-05:00,121.05197234327426,122.85500644474074,120.8826289083331,121.49028015136719,314300,0.0,0.0
2026-01-02 00:00:00-05:00,121.27112467453803,122.52627399961013,120.31482296020086,122.06804656982422,295100,0.0,0.0
2026-01-05 00:00:00-05:00,121.29105352059696,124.10019221895458,121.29105352059696,122.52627563476562,435700,0.0,0.0
2026-01-06 00:00:00-05:00,121.74928292899573,122.37685381006916,119.64740877808522,120.09567260742188,777200,0.0,0.0
2026-01-07 00:00:00-05:00,120.20524516718837,121.48031411070211,117.15703299910017,119.97613525390625,478500,0.0,0.0
2026-01-08 00:00:00-05:00,119.45813846313783,122.89485569818288,119.0596775025515,121.96843719482422,330000,0.0,0.0
2026-01-09 00:00:00-05:00,121.60982144195128,124.48869025314991,120.99220658141333,123.37300109863281,429100,0.0,0.0
2026-01-12 00:00:00-05:00,123.5224261097117,124.81742232667263,122.50635788410425,124.6480712890625,477300,0.0,0.0
2026-01-13 00:00:00-05:00,124.56838640898677,124.95688375791437,122.06805127613653,123.02435302734375,351900,0.0,0.0
2026-01-14 00:00:00-05:00,123.63200512032016,126.67026143373172,123.63200512032016,126.3614501953125,611700,0.0,0.0
2026-01-15 00:00:00-05:00,126.65033136548587,126.73002507684,124.04041931871804,124.6281509399414,381000,0.0,0.0
2026-01-16 00:00:00-05:00,123.52242596027686,124.71780123601722,122.76535089896896,124.22969055175781,363400,0.0,0.0
2026-01-20 00:00:00-05:00,124.41895904968523,125.0465299185149,122.9645830361994,123.3431167602539,275100,0.0,0.0
2026-01-21 00:00:00-05:00,123.8312253817379,125.13618516671866,123.4228084230874,124.52853393554688,421000,0.0,0.0
2026-01-22 00:00:00-05:00,124.56838384921164,125.9231465355853,123.58219127603556,123.99061584472656,369700,0.0,0.0
2026-01-23 00:00:00-05:00,123.8611143925338,125.79364512595791,123.39293093032236,125.51472473144531,429500,0.0,0.0
2026-01-26 00:00:00-05:00,125.93310290002078,126.50090729221316,124.61818706546947,125.86337280273438,315400,0.0,0.0
2026-01-27 00:00:00-05:00,124.46876518523668,125.8135718823247,123.69177048914806,124.25957489013672,303100,0.0,0.0
2026-01-28 00:00:00-05:00,123.72165370927159,124.58830573168342,122.77531557446258,123.22357940673828,347800,0.0,0.0
2026-01-29 00:00:00-05:00,123.81130890933785,124.7974938834136,122.1178517498024,123.37300109863281,386000,0.0,0.0
2026-01-30 00:00:00-05:00,122.43662879089985,124.52853934314632,122.18759163944166,124.46876525878906,512700,0.0,0.0
2026-02-02 00:00:00-05:00,123.72164944172175,125.42507018563877,123.72164944172175,124.34922790527344,489100,0.0,0.0
2026-02-03 00:00:00-05:00,123.43277330805162,127.43728722684571,123.21361940602614,124.14999389648438,658700,0.0,0.0
2026-02-04 00:00:00-05:00,125.70999908447266,130.4199981689453,124.69999694824219,129.22999572753906,589400,0.48,0.0
2026-02-05 00:00:00-05:00,127.66999816894531,129.0800018310547,121.95999908447266,123.9800033569336,2144200,0.0,0.0
2026-02-06 00:00:00-05:00,127.52999877929688,135.99000549316406,127.52999877929688,134.30999755859375,1045700,0.0,0.0
2026-02-09 00:00:00-05:00,133.5800018310547,139.57000732421875,133.25,138.47000122070312,1043400,0.0,0.0
2026-02-10 00:00:00-05:00,137.80999755859375,140.92999267578125,137.80999755859375,140.1699981689453,622100,0.0,0.0
2026-02-11 00:00:00-05:00,139.02999877929688,140.5500030517578,138.60000610351562,140.00999450683594,584300,0.0,0.0
2026-02-12 00:00:00-05:00,140.16000366210938,142.0,139.38999938964844,140.50999450683594,572700,0.0,0.0
2026-02-13 00:00:00-05:00,140.50999450683594,142.92999267578125,140.41000366210938,142.5800018310547,471900,0.0,0.0
2026-02-17 00:00:00-05:00,139.25999450683594,143.6199951171875,139.25999450683594,141.64999389648438,614700,0.0,0.0
2026-02-18 00:00:00-05:00,141.47000122070312,143.11000061035156,140.83999633789062,141.72000122070312,582000,0.0,0.0
2026-02-19 00:00:00-05:00,141.64999389648438,143.32000732421875,141.02999877929688,143.16000366210938,525500,0.0,0.0
2026-02-20 00:00:00-05:00,143.1199951171875,145.13999938964844,142.0,145.0500030517578,664500,0.0,0.0
2026-02-23 00:00:00-05:00,143.49000549316406,146.24000549316406,143.1300048828125,145.72000122070312,513500,0.0,0.0
