Date,Open,High,Low,Close,Volume,Dividends,Stock Splits
2024-01-22 00:00:00-05:00,127.77055935150626,128.65880749773294,127.4386913278599,128.0536346435547,266200,0.0,0.0
2024-01-23 00:00:00-05:00,128.64906312745666,128.6978707572989,127.21420519528036,128.6783447265625,217800,0.0,0.0
2024-01-24 00:00:00-05:00,128.9613957312844,129.12732974543195,127.41916708368214,127.65343475341797,294400,0.0,0.0
2024-01-25 00:00:00-05:00,128.87356452416097,129.21520305011953,127.26301694520882,128.11221313476562,332300,0.0,0.0
2024-01-26 00:00:00-05:00,128.53192660525798,129.42017486174706,128.2586217407995,128.55145263671875,219900,0.0,0.0
2024-01-29 00:00:00-05:00,127.91699396059559,129.4201706663894,127.37038424939784,129.0883026123047,187800,0.0,0.0
2024-01-30 00:00:00-05:00,128.87356095519164,129.9082171791013,128.48312970262114,129.0883026123047,228400,0.0,0.0
2024-01-31 00:00:00-05:00,129.60723270578828,129.9988930637574,126.46423863727915,127.1692123413086,537500,0.41,0.0
2024-02-01 00:00:00-05:00,127.73710181243482,128.37352931710902,126.90483666910929,127.77626037597656,298800,0.0,0.0
2024-02-02 00:00:00-05:00,127.24754327751656,127.98188963430198,126.00404593007175,127.3846206665039,344800,0.0,0.0
2024-02-05 00:00:00-05:00,126.43486927198613,128.70643964612842,125.3774086883919,127.92313385009766,319500,0.0,0.0
2024-02-06 00:00:00-05:00,127.7566849400452,128.65748138443502,126.6013204593003,128.39312744140625,369700,0.0,0.0
2024-02-07 00:00:00-05:00,128.66727380111038,129.65618816171585,126.66984338720535,129.04913330078125,393000,0.0,0.0
2024-02-08 00:00:00-05:00,128.89249496518858,132.025703658992,128.7945761240032,129.3624725341797,620700,0.0,0.0
2024-02-09 00:00:00-05:00,129.35265670179223,136.30447448883055,128.76517367122327,136.0596923828125,650900,0.0,0.0
2024-02-12 00:00:00-05:00,136.25553680888638,137.53819285852202,134.63996568733594,134.73788452148438,491300,0.0,0.0
2024-02-13 00:00:00-05:00,133.8370732258997,134.46371485035667,132.1627569650691,133.09292602539062,275900,0.0,0.0
2024-02-14 00:00:00-05:00,133.41605726205856,134.59102353082952,132.34881067689776,134.30706787109375,335000,0.0,0.0
2024-02-15 00:00:00-05:00,134.30706041780414,134.93370208755908,131.76133517081288,132.2215118408203,471400,0.0,0.0
2024-02-16 00:00:00-05:00,132.5445941371132,135.11970636541193,132.22148000296713,134.63014221191406,453900,0.0,0.0
2024-02-20 00:00:00-05:00,134.27767922539462,137.21506466705296,134.0916424236392,136.7744598388672,373000,0.0,0.0
2024-02-21 00:00:00-05:00,136.17720641755898,137.1857076724592,136.08908842992304,137.0780029296875,276300,0.0,0.0
2024-02-22 00:00:00-05:00,137.53817501361547,139.4474725092563,137.14652960846874,138.51730346679688,295700,0.0,0.0
2024-02-23 00:00:00-05:00,139.00687592300707,139.0852079967368,137.66547464363427,138.40960693359375,190300,0.0,0.0
2024-02-26 00:00:00-05:00,138.54669929229192,139.09500892730892,137.86131224852068,138.9579315185547,199200,0.0,0.0
2024-02-27 00:00:00-05:00,138.9579283971405,139.21249645330374,136.8821805568274,137.38153076171875,244600,0.0,0.0
2024-02-28 00:00:00-05:00,136.7352991344429,138.29212491891366,136.4219857602969,137.4794464111328,189600,0.0,0.0
2024-02-29 00:00:00-05:00,137.69483138246753,138.6739597804023,136.91152567605698,137.52838134765625,250600,0.0,0.0
2024-03-01 00:00:00-05:00,136.96050712345004,137.85150275430968,136.64717881434012,137.3619384765625,151400,0.0,0.0
2024-03-04 00:00:00-05:00,137.75360334088958,139.15375004940918,137.62631184363633,138.99710083007812,260300,0.0,0.0
2024-03-05 00:00:00-05:00,139.30061277790898,140.2209959378747,138.78167587968406,139.54539489746094,190200,0.0,0.0
2024-03-06 00:00:00-05:00,139.9468462493595,140.64203414212724,139.50624135916559,140.0839385986328,184000,0.0,0.0
2024-03-07 00:00:00-05:00,141.48407236579914,142.11071402641565,140.83784395132457,141.6309356689453,250100,0.0,0.0
2024-03-08 00:00:00-05:00,141.68968334205277,142.04217017860248,139.98599447534343,140.10348510742188,185200,0.0,0.0
2024-03-11 00:00:00-04:00,139.80974769391716,140.38744484600662,139.01665602346128,139.76080322265625,226700,0.0,0.0
2024-03-12 00:00:00-04:00,139.8195731961706,139.86853261637978,138.5271162161719,139.43771362304688,242200,0.0,0.0
2024-03-13 00:00:00-04:00,140.01536839770395,140.01536839770395,137.98856533416247,138.21377563476562,336800,0.0,0.0
2024-03-14 00:00:00-04:00,138.40961949274333,138.6641875502277,137.43049089274948,137.98858642578125,235200,0.0,0.0
2024-03-15 00:00:00-04:00,137.11717405655844,139.4377191923658,136.8234474042064,138.05714416503906,599500,0.0,0.0
2024-03-18 00:00:00-04:00,137.98856680896114,138.3508544988705,136.0303098873644,136.35342407226562,299700,0.0,0.0
2024-03-19 00:00:00-04:00,135.98136479832178,137.39131216591127,135.98136479832178,136.59820556640625,253000,0.0,0.0
2024-03-20 00:00:00-04:00,136.71571440452314,137.14653332605133,136.23593607094585,137.04861450195312,220000,0.0,0.0
2024-03-21 00:00:00-04:00,137.38150497553184,138.64458899246836,136.39259065880114,138.19418334960938,255800,0.0,0.0
2024-03-22 00:00:00-04:00,139.04604361018582,139.4768625738005,138.10608854440505,138.6348114013672,276000,0.0,0.0
2024-03-25 00:00:00-04:00,138.25293589235656,141.0434579861113,138.22356323371196,139.97621154785156,316300,0.0,0.0
2024-03-26 00:00:00-04:00,139.84890891934225,141.2980147447867,139.64328538490582,140.211181640625,314200,0.0,0.0
2024-03-27 00:00:00-04:00,140.6713892220077,142.12049521274304,140.6713892220077,141.64073181152344,218200,0.0,0.0
2024-03-28 00:00:00-04:00,141.79742300543492,142.3163600120605,140.65182929915187,140.88682556152344,247800,0.0,0.0
2024-04-01 00:00:00-04:00,140.78886778891064,140.78886778891064,139.15372513369473,139.32017517089844,204400,0.0,0.0
2024-04-02 00:00:00-04:00,138.87959193219197,138.87959193219197,137.4598585024541,137.69485473632812,202600,0.0,0.0
2024-04-03 00:00:00-04:00,137.7340126592537,138.243163693435,136.95070682366313,137.93963623046875,258700,0.0,0.0
2024-04-04 00:00:00-04:00,138.86977493151286,139.77057121586338,138.02772395739848,138.79144287109375,403600,0.0,0.0
2024-04-05 00:00:00-04:00,138.42919508534143,139.78038228496015,138.00816205233073,138.77188110351562,288300,0.0,0.0
2024-04-08 00:00:00-04:00,138.7131395022946,139.40832734461233,137.45985615698365,137.5773468017578,312500,0.0,0.0
2024-04-09 00:00:00-04:00,137.48923550477178,138.15505071827695,136.45136158461523,137.38153076171875,242600,0.0,0.0
2024-04-10 00:00:00-04:00,136.0792616368699,137.2933862384149,135.56032477708936,136.49049377441406,200700,0.0,0.0
2024-04-11 00:00:00-04:00,136.3534270559702,137.11714607687958,135.56033537581934,136.2261505126953,265300,0.0,0.0
2024-04-12 00:00:00-04:00,135.2861816113603,136.04990063800145,133.12231601598205,134.33642578125,299200,0.0,0.0
2024-04-15 00:00:00-04:00,135.71701332081525,136.8919646309111,134.9532942222371,135.31556701660156,319600,0.0,0.0
2024-04-16 00:00:00-04:00,134.9141124076051,136.48072401817615,134.49309431469953,135.69741821289062,281700,0.0,0.0
2024-04-17 00:00:00-04:00,135.9813755097354,136.56884366563017,135.46243858221953,135.51138305664062,565400,0.0,0.0
2024-04-18 00:00:00-04:00,135.50158455374626,136.52967240638696,135.33513451136662,136.20655822753906,246600,0.0,0.0
2024-04-19 00:00:00-04:00,136.1576231364725,136.99967434499524,135.87368241118418,136.43177795410156,276600,0.0,0.0
2024-04-22 00:00:00-04:00,136.63739372874517,138.20399046276464,136.34365217226772,137.39132690429688,298800,0.0,0.0
2024-04-23 00:00:00-04:00,136.8527948444517,138.2137828639888,136.60801271906504,137.224853515625,417200,0.0,0.0
2024-04-24 00:00:00-04:00,137.43107255657495,138.3639707514258,137.12665456517468,137.489990234375,559200,0.41,0.0
2024-04-25 00:00:00-04:00,137.32305979581383,138.70768524114288,136.41962038738555,137.6569366455078,694400,0.0,0.0
2024-04-26 00:00:00-04:00,139.4441957677168,145.8370193484069,139.34598963619146,140.75025939941406,489500,0.0,0.0
2024-04-29 00:00:00-04:00,142.29197344794224,145.355827500917,141.77151399033158,143.74534606933594,676700,0.0,0.0
2024-04-30 00:00:00-04:00,143.11687921960655,143.47040029775064,141.46710919355039,141.78135681152344,585100,0.0,0.0
2024-05-01 00:00:00-04:00,142.38037153909585,144.56041558796554,141.97774741652296,142.7633514404297,359600,0.0,0.0
2024-05-02 00:00:00-04:00,143.13653156116007,144.0890742036821,142.67498966285956,143.2936553955078,356500,0.0,0.0
2024-05-03 00:00:00-04:00,144.46222120377251,144.4818654266077,142.23307391275765,144.16761779785156,303300,0.0,0.0
2024-05-06 00:00:00-04:00,145.10049205412827,146.3967408317386,144.51130032406382,146.35745239257812,260200,0.0,0.0
2024-05-07 00:00:00-04:00,145.6504421901758,147.67336250101417,145.6504421901758,147.02523803710938,392900,0.0,0.0
2024-05-08 00:00:00-04:00,147.02523988257218,148.1545354150032,146.7895541697891,148.0759735107422,223500,0.0,0.0
2024-05-09 00:00:00-04:00,148.28219977529417,148.99905654553297,145.9548614346765,146.39675903320312,299100,0.0,0.0
2024-05-10 00:00:00-04:00,146.2690950329477,146.31819809625316,145.4245732902073,145.8173828125,186300,0.0,0.0
2024-05-13 00:00:00-04:00,145.8566510618431,146.7895492947144,144.2167106982556,145.20852661132812,167500,0.0,0.0
2024-05-14 00:00:00-04:00,145.63081615723232,145.64063077731092,144.81575316612566,145.23800659179688,137600,0.0,0.0
2024-05-15 00:00:00-04:00,145.29691906696215,145.6700693720631,144.12833512148518,144.629150390625,211100,0.0,0.0
2024-05-16 00:00:00-04:00,144.71753727300873,145.2379968009917,143.79445358665347,144.8844757080078,235500,0.0,0.0
2024-05-17 00:00:00-04:00,145.1888834863617,145.50311607876148,144.48184142327574,145.01211547851562,169500,0.0,0.0
2024-05-20 00:00:00-04:00,144.9335655105072,145.73881375356336,144.39346180896348,145.5031280517578,163400,0.0,0.0
2024-05-21 00:00:00-04:00,145.2772782532513,146.00394964307074,144.44257113428725,145.9155731201172,280400,0.0,0.0
2024-05-22 00:00:00-04:00,145.40495701805904,146.1512727007379,144.8157501741556,146.1119842529297,283300,0.0,0.0
2024-05-23 00:00:00-04:00,145.98431714179043,146.26909092632513,144.9041097160021,145.0612335205078,171700,0.0,0.0
2024-05-24 00:00:00-04:00,145.80755573142952,146.15126219636196,144.70771901828797,145.42457580566406,162300,0.0,0.0
2024-05-28 00:00:00-04:00,144.96303734838673,145.120161163679,143.19544687087972,144.06942749023438,318400,0.0,0.0
2024-05-29 00:00:00-04:00,143.02849673288384,144.05960119118265,141.90901574551282,142.2330780029297,229700,0.0,0.0
2024-05-30 00:00:00-04:00,142.51787327448253,144.3345669415198,142.39020829280838,143.5096893310547,328100,0.0,0.0
2024-05-31 00:00:00-04:00,143.460590972753,145.1692789226644,143.29365252116477,145.03179931640625,358900,0.0,0.0
2024-06-03 00:00:00-04:00,145.82717820341358,145.82717820341358,143.64713434063063,145.49330139160156,266200,0.0,0.0
2024-06-04 00:00:00-04:00,144.99249225588795,145.7191786437799,144.0595939771539,145.5227813720703,287900,0.0,0.0
2024-06-05 00:00:00-04:00,145.0612321328532,145.5325885577106,144.43275190499315,145.25762939453125,229200,0.0,0.0
2024-06-06 00:00:00-04:00,145.34600693630378,145.34600693630378,142.7829829453908,143.33291625976562,197600,0.0,0.0
2024-06-07 00:00:00-04:00,143.14632406296613,143.69624235649312,142.83207647572232,142.93028259277344,179100,0.0,0.0
2024-06-10 00:00:00-04:00,142.22327351669358,143.18563075373598,141.39839588494294,142.96958923339844,125800,0.0,0.0
2024-06-11 00:00:00-04:00,142.30181787355684,143.11688078441608,141.7518995202425,142.88119506835938,147700,0.0,0.0
2024-06-12 00:00:00-04:00,143.60788538736784,143.6766176913387,141.47694421784456,143.20526123046875,221300,0.0,0.0
2024-06-13 00:00:00-04:00,143.26417891505852,143.89265919093566,142.40984252020334,143.20526123046875,232400,0.0,0.0
2024-06-14 00:00:00-04:00,142.47857596813694,142.76336475814304,141.09395043255316,142.1446990966797,141500,0.0,0.0
2024-06-17 00:00:00-04:00,142.262529988864,144.03995002502072,141.96794157282253,143.69625854492188,303800,0.0,0.0
2024-06-18 00:00:00-04:00,143.8435473023559,145.03177547725338,143.83373268357687,144.04977416992188,219900,0.0,0.0
2024-06-20 00:00:00-04:00,144.02031501321562,144.87465135378994,143.04812832679772,143.18560791015625,199900,0.0,0.0
2024-06-21 00:00:00-04:00,143.24453703514095,144.49168298791326,142.6946186577726,144.2069091796875,444100,0.0,0.0
2024-06-24 00:00:00-04:00,144.57022425452078,145.56204011607758,144.0301205738117,144.0792236328125,182900,0.0,0.0
2024-06-25 00:00:00-04:00,144.14795601419823,144.15778561649418,141.89917975845694,142.25270080566406,194500,0.0,0.0
2024-06-26 00:00:00-04:00,141.65370250979515,142.18397667486374,140.38692729181602,141.12342834472656,192400,0.0,0.0
2024-06-27 00:00:00-04:00,141.28053283691406,141.29036244050806,139.7093396295116,141.28053283691406,377300,0.0,0.0
2024-06-28 00:00:00-04:00,141.19216496418454,141.72245412960396,137.56857727571187,138.27561950683594,435100,0.0,0.0
2024-07-01 00:00:00-04:00,138.83535828747213,138.933549433841,135.89916880106614,136.0464630126953,306400,0.0,0.0
2024-07-02 00:00:00-04:00,135.9875450145778,137.97119197013797,135.2805028320841,137.87298583984375,259400,0.0,0.0
2024-07-03 00:00:00-04:00,138.34434581557062,138.85497569514482,138.03992781470706,138.67822265625,143300,0.0,0.0
2024-07-05 00:00:00-04:00,138.45237466307032,138.89427227033218,137.2150433817555,138.36398315429688,207000,0.0,0.0
2024-07-08 00:00:00-04:00,139.1004770180373,139.93518410989694,138.95318281789764,138.96299743652344,249300,0.0,0.0
2024-07-09 00:00:00-04:00,138.32471855963942,138.72734273203724,137.23469640031377,137.51947021484375,238400,0.0,0.0
2024-07-10 00:00:00-04:00,138.21668936747787,139.08085534637348,138.03993631769544,138.74696350097656,142000,0.0,0.0
2024-07-11 00:00:00-04:00,138.65858169111584,140.72079043155156,138.21668409935128,139.53256225585938,244500,0.0,0.0
2024-07-12 00:00:00-04:00,140.8288097476232,142.87137424563738,140.8288097476232,141.98756408691406,263900,0.0,0.0
2024-07-15 00:00:00-04:00,142.1544979306604,143.0677669001762,140.5636606740105,140.8484344482422,319900,0.0,0.0
2024-07-16 00:00:00-04:00,141.2609020474861,142.68480102686743,141.2609020474861,141.95811462402344,178800,0.0,0.0
2024-07-17 00:00:00-04:00,141.74205596322045,143.1463255339029,141.74205596322045,142.25270080566406,242300,0.0,0.0
2024-07-18 00:00:00-04:00,142.0072153112255,144.59969826651894,141.99740069205538,143.64715576171875,434200,0.0,0.0
2024-07-19 00:00:00-04:00,143.95158840340514,143.95158840340514,142.05633280461748,143.31329345703125,251200,0.0,0.0
2024-07-22 00:00:00-04:00,143.36237293963097,144.90410716476552,142.63568659469945,144.540771484375,235700,0.0,0.0
2024-07-23 00:00:00-04:00,145.20853274870527,145.837013004333,143.04813280649452,143.41146850585938,234500,0.0,0.0
2024-07-24 00:00:00-04:00,143.44092443045136,143.9908427124789,141.3099686113706,141.545654296875,250600,0.0,0.0
2024-07-25 00:00:00-04:00,140.69850870933138,141.9003035015735,139.11253460029565,139.37850952148438,558100,0.45,0.0
2024-07-26 00:00:00-04:00,140.99403954017995,149.03225436821083,140.2256808803761,144.4713592529297,562800,0.0,0.0
2024-07-29 00:00:00-04:00,144.39253513535562,146.13612499010006,143.00357347087996,145.59432983398438,390900,0.0,0.0
2024-07-30 00:00:00-04:00,145.18061582106415,145.69284490726275,143.24001342647648,143.57493591308594,411000,0.0,0.0
2024-07-31 00:00:00-04:00,144.3137274810093,146.62866359296467,143.23999755294346,144.78656005859375,280600,0.0,0.0
2024-08-01 00:00:00-04:00,144.68805994790043,147.3083523550759,143.25968681226828,144.8358154296875,335300,0.0,0.0
2024-08-02 00:00:00-04:00,144.39252565285256,144.80625600914962,141.60475715180448,143.51580810546875,213500,0.0,0.0
2024-08-05 00:00:00-04:00,141.2895581221616,141.2895581221616,137.39850777077115,138.58059692382812,448500,0.0,0.0
2024-08-06 00:00:00-04:00,139.2208988569605,143.90985877495493,139.004180769512,142.7671661376953,476000,0.0,0.0
2024-08-07 00:00:00-04:00,143.8310548599633,145.06240083173878,141.32896645899015,141.45703125,353600,0.0,0.0
2024-08-08 00:00:00-04:00,142.30419618285174,143.97882367828078,142.30419618285174,143.3877716064453,268600,0.0,0.0
2024-08-09 00:00:00-04:00,143.24000692951807,143.24000692951807,141.32895572154177,141.80178833007812,263200,0.0,0.0
2024-08-12 00:00:00-04:00,141.82150185638116,142.02835955787225,140.63941275462523,141.15164184570312,221100,0.0,0.0
2024-08-13 00:00:00-04:00,141.36836376062408,143.1316596201406,140.96449370308977,142.2155303955078,212000,0.0,0.0
2024-08-14 00:00:00-04:00,141.97911142530356,142.64895637508786,141.3486629303569,141.75253295898438,115700,0.0,0.0
2024-08-15 00:00:00-04:00,142.83610258066705,145.14117814589002,142.83610258066705,144.81610107421875,277500,0.0,0.0
2024-08-16 00:00:00-04:00,143.92954395140833,144.64864566732285,143.43700564687694,144.5304412841797,250600,0.0,0.0
2024-08-19 00:00:00-04:00,144.1364243221197,145.52537099118265,143.742384638883,144.77671813964844,191200,0.0,0.0
2024-08-20 00:00:00-04:00,144.7865625493503,146.0967163042852,144.7865625493503,145.8997039794922,387200,0.0,0.0
2024-08-21 00:00:00-04:00,145.95880891606805,147.33792527768335,145.25941289525127,147.10150146484375,267300,0.0,0.0
2024-08-22 00:00:00-04:00,147.33791728832864,148.1555176556925,146.4513393115624,146.76657104492188,200400,0.0,0.0
2024-08-23 00:00:00-04:00,147.42657245924363,148.2835843197592,147.20985439756072,148.19493103027344,221400,0.0,0.0
2024-08-26 00:00:00-04:00,148.4313421940693,150.39165013594368,147.89940741750647,147.9191131591797,235500,0.0,0.0
2024-08-27 00:00:00-04:00,147.77135976302682,149.27852600748776,147.60389851709544,148.943603515625,208300,0.0,0.0
2024-08-28 00:00:00-04:00,148.67762127976994,149.7021094800826,148.67762127976994,149.2785186767578,249000,0.0,0.0
2024-08-29 00:00:00-04:00,150.27343643518816,150.628064607945,148.95343741534498,150.00746154785156,187100,0.0,0.0
2024-08-30 00:00:00-04:00,149.92865365460125,151.15015403464147,149.37701317041402,150.9038848876953,178500,0.0,0.0
2024-09-03 00:00:00-04:00,149.8400193299736,150.10599425103322,147.4955319444296,147.8009033203125,362400,0.0,0.0
2024-09-04 00:00:00-04:00,147.36746449010874,148.64805203758075,147.36746449010874,148.4805908203125,175800,0.0,0.0
2024-09-05 00:00:00-04:00,148.82539237992884,149.4952373333449,147.71225087848865,148.47076416015625,200600,0.0,0.0
2024-09-06 00:00:00-04:00,148.13583421192192,150.83493466359408,148.13583421192192,150.10598754882812,319100,0.0,0.0
2024-09-09 00:00:00-04:00,150.29314427662686,150.77582219137958,149.18000290720337,149.6429901123047,241500,0.0,0.0
2024-09-10 00:00:00-04:00,149.60359060845036,150.5098593504834,149.18001485089158,149.24896240234375,158100,0.0,0.0
2024-09-11 00:00:00-04:00,148.53971715509678,148.62838548659613,146.41196278960206,148.58897399902344,178000,0.0,0.0
2024-09-12 00:00:00-04:00,148.63822146674445,149.74150255192956,147.73195271375994,149.6922607421875,200400,0.0,0.0
2024-09-13 00:00:00-04:00,149.91880826243133,150.7265632480533,149.6331276346427,150.00746154785156,138600,0.0,0.0
2024-09-16 00:00:00-04:00,150.75612046862636,150.88418524015407,149.80060996848025,150.70687866210938,182900,0.0,0.0
2024-09-17 00:00:00-04:00,151.7018023977328,153.2483799357953,149.60358434683263,150.74627685546875,259900,0.0,0.0
2024-09-18 00:00:00-04:00,151.46536524369174,153.16955850124376,150.4310468888198,150.78567504882812,214200,0.0,0.0
2024-09-19 00:00:00-04:00,152.70659868608976,156.44003287404942,152.70659868608976,154.55853271484375,412400,0.0,0.0
2024-09-20 00:00:00-04:00,153.97732236069467,153.97732236069467,152.17463036234477,153.5832977294922,663300,0.0,0.0
2024-09-23 00:00:00-04:00,153.83941076911725,154.56837286407173,152.43075844648385,153.63255310058594,315800,0.0,0.0
2024-09-24 00:00:00-04:00,153.8492602560699,154.7358382382443,153.70150477457904,154.2925567626953,246200,0.0,0.0
2024-09-25 00:00:00-04:00,154.95256827239905,155.51405417652938,153.54390077200065,154.79495239257812,284100,0.0,0.0
2024-09-26 00:00:00-04:00,155.58301283158644,156.68629390031595,155.34658901782558,156.01644897460938,371600,0.0,0.0
2024-09-27 00:00:00-04:00,156.31195688011874,159.1391371097761,155.89822648747847,157.50390625,354300,0.0,0.0
2024-09-30 00:00:00-04:00,156.91286043073308,158.02600190814087,156.5582322186168,157.7994384765625,289800,0.0,0.0
2024-10-01 00:00:00-04:00,158.1442344139527,158.1442344139527,156.6764794945942,157.58274841308594,192200,0.0,0.0
2024-10-02 00:00:00-04:00,157.4743714739209,157.72064066395075,155.60273164212558,156.3809356689453,186900,0.0,0.0
2024-10-03 00:00:00-04:00,155.63229524330936,158.0654362387278,154.30243549789841,156.568115234375,367000,0.0,0.0
2024-10-04 00:00:00-04:00,157.55317575699624,159.06034196246668,156.95227834604486,158.18362426757812,350500,0.0,0.0
2024-10-07 00:00:00-04:00,157.0113584742411,157.25762762392972,155.6519479580155,156.32180786132812,223300,0.0,0.0
2024-10-08 00:00:00-04:00,155.91794469733082,156.6469068937468,154.75556136283095,156.3021240234375,205900,0.0,0.0
2024-10-09 00:00:00-04:00,155.98689745116081,157.66152479193522,155.76031899360427,157.31674194335938,152600,0.0,0.0
2024-10-10 00:00:00-04:00,155.69139502522336,157.00154900475346,155.69139502522336,156.84393310546875,168500,0.0,0.0
2024-10-11 00:00:00-04:00,158.5382323042453,159.5036031750847,157.9570407107556,159.13912963867188,194400,0.0,0.0
2024-10-14 00:00:00-04:00,162.5278261186399,165.2564780234564,161.0206598219905,164.6949920654297,469700,0.0,0.0
2024-10-15 00:00:00-04:00,164.82304506735403,167.1281209995481,164.00542958075638,166.16273498535156,397300,0.0,0.0
2024-10-16 00:00:00-04:00,166.18244150078093,166.6749798662433,163.4439293912965,163.5621337890625,330000,0.0,0.0
2024-10-17 00:00:00-04:00,164.488098107437,165.8081122685309,164.03497125675165,165.384521484375,238200,0.0,0.0
2024-10-18 00:00:00-04:00,166.57646684033423,166.57646684033423,165.2761584527809,166.1134796142578,171500,0.0,0.0
2024-10-21 00:00:00-04:00,165.95587236851253,165.9755781111569,163.81825773946284,163.84780883789062,217900,0.0,0.0
2024-10-22 00:00:00-04:00,163.24691799022813,163.88721185658056,162.3504945524722,163.3355712890625,228500,0.0,0.0
2024-10-23 00:00:00-04:00,164.02511497624792,165.47317891952764,163.68034715184834,165.14810180664062,318100,0.0,0.0
2024-10-24 00:00:00-04:00,166.25437089703468,166.26424275049317,164.1109880455168,164.50608825683594,547300,0.45,0.0
2024-10-25 00:00:00-04:00,166.84699953906053,167.76559434792017,162.58989458720737,166.83712768554688,518900,0.0,0.0
2024-10-28 00:00:00-04:00,167.814965802635,169.30644459182432,166.68895658861797,167.02479553222656,350000,0.0,0.0
2024-10-29 00:00:00-04:00,166.955651734335,167.41001321614593,165.58271050683078,166.62969970703125,338100,0.0,0.0
2024-10-30 00:00:00-04:00,166.2840101721286,168.11129787803878,166.0568218869867,166.95565795898438,290300,0.0,0.0
2024-10-31 00:00:00-04:00,167.0149074427507,168.1903060583551,165.80000634251405,165.84939575195312,329900,0.0,0.0
2024-11-01 00:00:00-04:00,166.0370724645558,168.8916056035141,165.56295220264656,167.33099365234375,316300,0.0,0.0
2024-11-04 00:00:00-05:00,167.54828102947104,168.47674762551887,166.1160635811035,166.19508361816406,191800,0.0,0.0
2024-11-05 00:00:00-05:00,165.6815022887005,168.2693448592814,165.6815022887005,168.21995544433594,206200,0.0,0.0
2024-11-06 00:00:00-05:00,173.00054209288007,173.00054209288007,170.0274864290188,171.03497314453125,264100,0.0,0.0
2024-11-07 00:00:00-05:00,172.06219761024633,173.3067444132421,171.4102935773944,172.56594848632812,412300,0.0,0.0
2024-11-08 00:00:00-05:00,172.55606865304011,175.6575337916526,172.34865422503788,173.60305786132812,309200,0.0,0.0
2024-11-11 00:00:00-05:00,174.15619299950882,175.84519929208736,173.74133401275535,173.98826599121094,189100,0.0,0.0
2024-11-12 00:00:00-05:00,174.4821465766491,175.0649175557079,172.80301197743213,173.54380798339844,179800,0.0,0.0
2024-11-13 00:00:00-05:00,173.34625244140625,174.22532969992872,172.9017778853501,173.34625244140625,168400,0.0,0.0
2024-11-14 00:00:00-05:00,173.0005422185195,173.63268749563633,171.77576922184258,171.96343994140625,198200,0.0,0.0
2024-11-15 00:00:00-05:00,170.84731153010915,171.62761001025086,164.13075818796634,164.44683837890625,620500,0.0,0.0
2024-11-18 00:00:00-05:00,164.3480572551266,165.76051609741364,162.3133400368618,164.64437866210938,384400,0.0,0.0
2024-11-19 00:00:00-05:00,164.3776861785157,165.61234613515475,164.16038482042458,164.85179138183594,287600,0.0,0.0
2024-11-20 00:00:00-05:00,164.95056714712908,166.86676177573253,163.61712839008123,166.65933227539062,221800,0.0,0.0
2024-11-21 00:00:00-05:00,166.61982839227232,168.14092278641004,165.6814898648052,167.79522705078125,205100,0.0,0.0
2024-11-22 00:00:00-05:00,168.0915324425654,169.95835270503898,168.0915324425654,169.40521240234375,241600,0.0,0.0
2024-11-25 00:00:00-05:00,169.93859733485252,171.88442260806409,169.6324040808553,170.38307189941406,270100,0.0,0.0
2024-11-26 00:00:00-05:00,170.7386550958449,170.7386550958449,169.0595205847663,169.9287109375,140300,0.0,0.0
2024-11-27 00:00:00-05:00,170.5509794809398,171.74613690502596,169.4150983926073,169.6225128173828,167200,0.0,0.0
2024-11-29 00:00:00-05:00,170.47196327119065,171.36092746909895,169.97809929619686,170.83743286132812,117300,0.0,0.0
2024-12-02 00:00:00-05:00,170.8571786767367,170.9855881347097,168.7434414405468,170.63987731933594,170900,0.0,0.0
2024-12-03 00:00:00-05:00,171.32140382396798,171.32140382396798,168.9903653419581,170.28428649902344,160100,0.0,0.0
2024-12-04 00:00:00-05:00,169.78054783121863,170.76827572949122,168.9311012358429,170.47195434570312,173400,0.0,0.0
2024-12-05 00:00:00-05:00,169.89908038553693,170.32381124406317,168.43724722982796,169.00025939941406,245000,0.0,0.0
2024-12-06 00:00:00-05:00,169.49412648666032,170.53122880286617,168.7533305056374,169.0496368408203,209200,0.0,0.0
2024-12-09 00:00:00-05:00,169.45461607190833,171.34118020028646,168.14093600159163,168.69406127929688,301700,0.0,0.0
2024-12-10 00:00:00-05:00,168.62489034268972,169.26690738073088,166.12594022743906,168.81256103515625,287000,0.0,0.0
2024-12-11 00:00:00-05:00,169.7706882600862,171.96344555860944,169.6422788011308,170.19540405273438,418600,0.0,0.0
2024-12-12 00:00:00-05:00,169.56324574340024,170.4818405219571,168.68416852065852,169.5336151123047,178300,0.0,0.0
2024-12-13 00:00:00-05:00,168.81259109812913,168.9014829983288,167.735971227179,168.11129760742188,153200,0.0,0.0
2024-12-16 00:00:00-05:00,168.05203725328025,168.83233572293636,165.5333278998814,165.57284545898438,236100,0.0,0.0
2024-12-17 00:00:00-05:00,164.85177219247606,164.86165911675923,160.84159953155662,161.08853149414062,511900,0.0,0.0
2024-12-18 00:00:00-05:00,161.68119290074782,162.4022300947158,155.97212647235614,156.26844787597656,468600,0.0,0.0
2024-12-19 00:00:00-05:00,156.56476642331307,159.58722689021582,156.28820377743185,156.92034912109375,404700,0.0,0.0
2024-12-20 00:00:00-05:00,156.77216627152492,157.81915538584704,155.53750645340335,156.23878479003906,730200,0.0,0.0
2024-12-23 00:00:00-05:00,155.2411920453163,156.94995709020597,155.0337776266267,156.5746307373047,194900,0.0,0.0
2024-12-24 00:00:00-05:00,156.83142758567232,157.46357280990827,155.98198102764923,157.39443969726562,100500,0.0,0.0
2024-12-26 00:00:00-05:00,156.47584292121232,157.67100024150704,156.47584292121232,156.90057373046875,164500,0.0,0.0
2024-12-27 00:00:00-05:00,155.88324575058945,157.62164166680031,155.67581623172129,156.2091827392578,145000,0.0,0.0
2024-12-30 00:00:00-05:00,155.0732703257191,155.55726239134026,153.09781465278002,154.80657958984375,221700,0.0,0.0
2024-12-31 00:00:00-05:00,155.34985716824414,156.30795452492524,154.2633503498842,155.1720733642578,317100,0.0,0.0
2025-01-02 00:00:00-05:00,155.71530356167833,156.16966504511277,151.56684923199984,152.2681427001953,239400,0.0,0.0
2025-01-03 00:00:00-05:00,152.14961579837612,153.80900668985902,150.99397583701122,153.59170532226562,250700,0.0,0.0
2025-01-06 00:00:00-05:00,152.1100981713301,152.74224343099903,149.58151713265437,151.04335021972656,369000,0.0,0.0
2025-01-07 00:00:00-05:00,154.00653658731684,154.1448178942518,150.72728770648897,151.54708862304688,361200,0.0,0.0
2025-01-08 00:00:00-05:00,151.01372323373394,152.36690568048937,150.22353787218913,152.2582550048828,228600,0.0,0.0
2025-01-10 00:00:00-05:00,150.84581158167944,152.40642352904024,150.7075302735099,151.5668487548828,350800,0.0,0.0
2025-01-13 00:00:00-05:00,151.05323931027544,152.80152213086694,151.05323931027544,152.00146484375,349300,0.0,0.0
2025-01-14 00:00:00-05:00,152.9101585386284,153.54230381140852,151.59647858222723,152.71261596679688,196900,0.0,0.0
2025-01-15 00:00:00-05:00,154.2040804325051,154.99426579503287,152.278013973022,153.6509552001953,206100,0.0,0.0
2025-01-16 00:00:00-05:00,153.97691677256847,155.2412074023744,153.4040327260106,154.49053955078125,346300,0.0,0.0
2025-01-17 00:00:00-05:00,155.04365916347115,156.01162834471992,153.76948165438378,154.17445373535156,231900,0.0,0.0
2025-01-21 00:00:00-05:00,154.7967112874925,158.2932612773146,154.7967112874925,157.86854553222656,270900,0.0,0.0
2025-01-22 00:00:00-05:00,157.38456509447906,158.77726509600365,156.39683716231107,157.11788940429688,280000,0.0,0.0
2025-01-23 00:00:00-05:00,156.51536468056645,157.84878826017882,155.79431248502868,157.66111755371094,149800,0.0,0.0
2025-01-24 00:00:00-05:00,157.69075395064,158.50069806679787,155.2905823766471,156.35733032226562,329600,0.0,0.0
2025-01-27 00:00:00-05:00,156.3079513540658,156.9697272858119,154.7275805724258,156.515380859375,317000,0.0,0.0
2025-01-28 00:00:00-05:00,155.6363008780896,158.38218338328682,155.6363008780896,156.47586059570312,204300,0.0,0.0
2025-01-29 00:00:00-05:00,156.8314497428212,156.87096730265517,154.69795365778037,155.18194580078125,265800,0.0,0.0
2025-01-30 00:00:00-05:00,155.8832293601482,156.73266091243917,154.6584412995214,156.18942260742188,274200,0.0,0.0
2025-01-31 00:00:00-05:00,155.96224681346368,157.4339669747109,154.8362374844696,155.22145080566406,834100,0.0,0.0
2025-02-03 00:00:00-05:00,152.68299796845204,154.82636594681924,152.24839523154196,154.06581115722656,364600,0.0,0.0
2025-02-04 00:00:00-05:00,154.17445161647603,156.51537709930176,154.17445161647603,155.7646942138672,302400,0.0,0.0
2025-02-05 00:00:00-05:00,156.78496957437233,158.15193966050393,156.28969231008264,156.82460021972656,262600,0.45,0.0
2025-02-06 00:00:00-05:00,158.330223321249,158.330223321249,153.90244361820098,154.9722442626953,446600,0.0,0.0
2025-02-07 00:00:00-05:00,156.13118403596545,156.40853806651052,140.69834424075708,141.82757568359375,1221500,0.0,0.0
2025-02-10 00:00:00-05:00,142.89739020246924,143.23419022779987,139.5691263969747,141.92665100097656,621900,0.0,0.0
2025-02-11 00:00:00-05:00,140.92619893722295,141.71864559383863,138.93517463420997,140.9459991455078,377300,0.0,0.0
2025-02-12 00:00:00-05:00,139.63845651895699,142.13465786662317,138.60827146737248,140.36155700683594,423500,0.0,0.0
2025-02-13 00:00:00-05:00,141.4016629482476,142.42193293232637,140.1238542207432,141.42147827148438,665900,0.0,0.0
2025-02-14 00:00:00-05:00,142.33277766540417,143.93747110903965,141.37193859702288,143.42237854003906,512800,0.0,0.0
2025-02-18 00:00:00-05:00,143.42239559513484,145.89878212468776,142.54080259520055,145.51246643066406,489600,0.0,0.0
2025-02-19 00:00:00-05:00,144.7596300671168,146.09688465141588,144.23463740564512,145.651123046875,331000,0.0,0.0
2025-02-20 00:00:00-05:00,145.58180970137414,146.02755624516584,144.5417243560844,145.29454040527344,283100,0.0,0.0
2025-02-21 00:00:00-05:00,145.64121813639457,145.99781833946028,143.82850169703235,144.95773315429688,451900,0.0,0.0
2025-02-24 00:00:00-05:00,144.79924257758321,145.8987586241878,142.99644133407836,144.23463439941406,353300,0.0,0.0
2025-02-25 00:00:00-05:00,144.50210269437727,146.92895832068604,144.34361033874444,146.3148193359375,336700,0.0,0.0
2025-02-26 00:00:00-05:00,145.2648134339398,147.7709151452162,145.23509800769241,145.25491333007812,735600,0.0,0.0
2025-02-27 00:00:00-05:00,144.8487791930552,145.78980293791258,143.9870016213501,144.25445556640625,262800,0.0,0.0
2025-02-28 00:00:00-05:00,144.77945280135046,145.56198422456703,143.26390558936882,145.36387634277344,348700,0.0,0.0
2025-03-03 00:00:00-05:00,145.58179885466237,147.43413096834846,144.31389027961936,145.20538330078125,394100,0.0,0.0
2025-03-04 00:00:00-05:00,144.16530779309892,146.55254797283033,143.76909200457226,144.56153869628906,490100,0.0,0.0
2025-03-05 00:00:00-05:00,144.67049334875352,147.44404907906232,144.67049334875352,147.0379180908203,445100,0.0,0.0
2025-03-06 00:00:00-05:00,146.16623319836435,150.06902070975633,145.67095590229255,149.72232055664062,471700,0.0,0.0
2025-03-07 00:00:00-05:00,149.08835113379365,151.91143748155838,147.77091184581425,151.3369140625,480200,0.0,0.0
2025-03-10 00:00:00-04:00,150.63362836403152,152.54539127234196,148.82091183580206,149.14779663085938,391100,0.0,0.0
2025-03-11 00:00:00-04:00,148.91995850666456,149.13788170379496,145.87896407979193,146.49310302734375,304000,0.0,0.0
2025-03-12 00:00:00-04:00,146.83979727055856,146.83979727055856,144.18510348201886,144.65066528320312,299700,0.0,0.0
2025-03-13 00:00:00-04:00,145.02707830377798,145.80960965615643,142.40209998498412,143.3926544189453,238400,0.0,0.0
2025-03-14 00:00:00-04:00,143.85823362542143,145.50255781235316,143.17474856490986,145.2747344970703,223600,0.0,0.0
2025-03-17 00:00:00-04:00,145.12611858365727,146.60205006955422,144.48226427448628,146.4435577392578,225200,0.0,0.0
2025-03-18 00:00:00-04:00,145.99782207785853,146.13649909845384,144.4030287836816,144.91812133789062,219900,0.0,0.0
2025-03-19 00:00:00-04:00,144.95773581468725,146.0671670860647,144.09595827257124,145.59169006347656,279600,0.0,0.0
2025-03-20 00:00:00-04:00,144.74974534584615,146.0275541012439,142.37240528942087,143.82852172851562,332800,0.0,0.0
2025-03-21 00:00:00-04:00,142.63985592972824,144.0860722305786,141.01534706400395,143.45211791992188,601900,0.0,0.0
2025-03-24 00:00:00-04:00,144.373315607197,146.7803557410134,143.5412534706675,146.5921630859375,463800,0.0,0.0
2025-03-25 00:00:00-04:00,147.0874582414962,147.82045897333845,144.55162576493385,145.81954956054688,325200,0.0,0.0
2025-03-26 00:00:00-04:00,145.66103699900552,147.29544581924438,144.91812115077664,147.15676879882812,630400,0.0,0.0
2025-03-27 00:00:00-04:00,146.87941526042871,148.47420855800183,145.64122217581178,147.93931579589844,312700,0.0,0.0
2025-03-28 00:00:00-04:00,147.87986917209872,148.58316949147616,144.38321312590557,145.5421600341797,239800,0.0,0.0
2025-03-31 00:00:00-04:00,145.1954839412941,147.68177035524897,144.72002200188086,146.97848510742188,372500,0.0,0.0
2025-04-01 00:00:00-04:00,147.47375771063503,148.61288933138113,145.9879259715773,147.69168090820312,240000,0.0,0.0
2025-04-02 00:00:00-04:00,146.60206784824211,149.70250830902188,146.60206784824211,149.10816955566406,247600,0.0,0.0
2025-04-03 00:00:00-04:00,145.37378420173204,148.63271722253594,145.07662992052116,147.2657470703125,352900,0.0,0.0
2025-04-04 00:00:00-04:00,143.84831399281242,146.56243854321565,138.7172342407548,138.8559112548828,531600,0.0,0.0
2025-04-07 00:00:00-04:00,135.05219810762017,140.7776019595379,129.61406352747676,133.37815856933594,629900,0.0,0.0
2025-04-08 00:00:00-04:00,136.08238602968135,137.99414901559882,130.03999735696206,132.39752197265625,473800,0.0,0.0
2025-04-09 00:00:00-04:00,131.92204340732616,143.05588162713724,130.07962651454883,142.3922119140625,491800,0.0,0.0
2025-04-10 00:00:00-04:00,138.67763443664703,142.0157983717514,136.27059417967757,139.43045043945312,309000,0.0,0.0
2025-04-11 00:00:00-04:00,139.53940778834394,143.3431485612126,138.4200914796294,142.74880981445312,203000,0.0,0.0
2025-04-14 00:00:00-04:00,144.42284856795507,145.01717219687393,142.43182435722224,144.41293334960938,249300,0.0,0.0
2025-04-15 00:00:00-04:00,144.72003060367427,145.1558619238213,142.41203661181956,142.58042907714844,250700,0.0,0.0
2025-04-16 00:00:00-04:00,142.69927796874322,144.44266355134033,141.22336144625882,143.63040161132812,307700,0.0,0.0
2025-04-17 00:00:00-04:00,144.02661345926595,144.38321367198066,139.38092570524432,142.47145080566406,390600,0.0,0.0
2025-04-21 00:00:00-04:00,141.9464615509291,142.68937741901001,139.76724469415743,141.23326110839844,291600,0.0,0.0
2025-04-22 00:00:00-04:00,143.13513046097071,145.43322423967282,142.23372220563516,144.64077758789062,217800,0.0,0.0
2025-04-23 00:00:00-04:00,146.4732884005367,147.9096045106202,145.82943402438084,146.65159606933594,537000,0.0,0.0
2025-04-24 00:00:00-04:00,146.53271720233386,150.56428119732627,144.08606153836624,150.02938842773438,424500,0.0,0.0
2025-04-25 00:00:00-04:00,149.4251394399899,151.55482538482735,146.17612217032462,147.65203857421875,220500,0.0,0.0
2025-04-28 00:00:00-04:00,148.3850569724869,149.603434692037,146.87941000337696,148.28599548339844,235200,0.0,0.0
2025-04-29 00:00:00-04:00,148.34543269560234,150.54446483869538,147.60251683954823,148.88034057617188,359900,0.0,0.0
2025-04-30 00:00:00-04:00,147.6619679397673,148.57327627446125,145.8195359480902,148.5336456298828,556200,0.0,0.0
2025-05-01 00:00:00-04:00,147.49043252263488,149.55698945100644,146.01007342098333,147.321533203125,445300,0.45,0.0
2025-05-02 00:00:00-04:00,152.00109276483386,152.01102266813578,146.83469293818283,151.01748657226562,431600,0.0,0.0
2025-05-05 00:00:00-04:00,150.45115939800078,152.22959744819886,149.9047266890984,150.50083923339844,267600,0.0,0.0
2025-05-06 00:00:00-04:00,149.27879067725587,151.05721352633617,148.45415394115105,149.9444580078125,312000,0.0,0.0
2025-05-07 00:00:00-04:00,150.89826085399986,152.16004072828045,149.64639572245358,150.4114227294922,318400,0.0,0.0
2025-05-08 00:00:00-04:00,150.8088240511965,153.57086810201378,150.26239137467758,152.36868286132812,302500,0.0,0.0
2025-05-09 00:00:00-04:00,152.91514690205906,153.30262538000602,151.95141565893186,152.32896423339844,231600,0.0,0.0
2025-05-12 00:00:00-04:00,154.78298382447863,155.57781574408938,152.70649699411595,154.51473999023438,352500,0.0,0.0
2025-05-13 00:00:00-04:00,155.2996361136822,155.2996361136822,152.20973802242366,152.6468963623047,339400,0.0,0.0
2025-05-14 00:00:00-04:00,152.6269999738617,152.6269999738617,149.99413556020957,151.49436950683594,350100,0.0,0.0
2025-05-15 00:00:00-04:00,151.36522536472287,154.47498293511407,151.36522536472287,153.9484100341797,278100,0.0,0.0
2025-05-16 00:00:00-04:00,154.1769139151355,156.13418110776666,153.59073129565786,155.99508666992188,278600,0.0,0.0
2025-05-19 00:00:00-04:00,155.34931362403165,157.316510963831,155.2996337843069,157.05819702148438,185400,0.0,0.0
2025-05-20 00:00:00-04:00,159.2240927799544,159.2240927799544,156.88929199923413,157.50527954101562,388100,0.0,0.0
2025-05-21 00:00:00-04:00,155.84607414489565,156.63096099792108,154.8227331688479,155.438720703125,319800,0.0,0.0
2025-05-22 00:00:00-04:00,155.34930186196166,156.24347826867125,154.55446996702122,155.63742065429688,278900,0.0,0.0
2025-05-23 00:00:00-04:00,154.11731521461456,155.1704610565874,153.2628735609117,154.93202209472656,260500,0.0,0.0
2025-05-27 00:00:00-04:00,156.01496421082626,157.41585367520375,155.67716559336355,157.13766479492188,352800,0.0,0.0
2025-05-28 00:00:00-04:00,157.13766546061635,157.81326269840386,156.2434739186448,156.382568359375,364400,0.0,0.0
2025-05-29 00:00:00-04:00,156.80979630695364,157.6443629490057,155.80633035592606,157.3065643310547,232100,0.0,0.0
2025-05-30 00:00:00-04:00,157.21714439221134,157.75364716957276,155.52812103943535,157.3760986328125,335100,0.0,0.0
2025-06-02 00:00:00-04:00,156.52166938265543,158.0417935519205,154.25640830397938,155.895751953125,349600,0.0,0.0
2025-06-03 00:00:00-04:00,155.1704542609852,156.42231939656108,154.99162504742128,155.24993896484375,397800,0.0,0.0
2025-06-04 00:00:00-04:00,155.4784762168023,155.50828108823,149.31854001233395,149.43777465820312,831900,0.0,0.0
2025-06-05 00:00:00-04:00,150.60021195802307,152.34883013042466,148.0865667026264,151.50433349609375,482400,0.0,0.0
2025-06-06 00:00:00-04:00,153.37216133250158,153.48145090878683,151.22613490023483,152.3190155029297,264700,0.0,0.0
2025-06-09 00:00:00-04:00,151.72289703426236,152.18984503093586,150.3816173012118,150.6200714111328,388400,0.0,0.0
2025-06-10 00:00:00-04:00,151.17644863767038,152.01101527919693,149.8848487437896,151.54405212402344,323500,0.0,0.0
2025-06-11 00:00:00-04:00,152.01102435470298,152.59720701933225,150.62007986911524,150.93800354003906,380800,0.0,0.0
2025-06-12 00:00:00-04:00,150.43129651800584,153.62053873925785,150.43129651800584,153.352294921875,337200,0.0,0.0
2025-06-13 00:00:00-04:00,152.01100972682164,152.7263568677604,149.75567873635768,150.1829071044922,361200,0.0,0.0
2025-06-16 00:00:00-04:00,150.26239971844478,151.91165806232243,150.14316508190436,150.70948791503906,346200,0.0,0.0
2025-06-17 00:00:00-04:00,149.68614833096728,150.28226087841142,148.16603935275657,148.4839630126953,379700,0.0,0.0
2025-06-18 00:00:00-04:00,148.1560928453656,149.7556865130082,148.1560928453656,148.7323455810547,383200,0.0,0.0
2025-06-20 00:00:00-04:00,149.31853088884125,149.7954391228616,148.02694611213587,149.32847595214844,570500,0.0,0.0
2025-06-23 00:00:00-04:00,148.5237056630681,152.94493793717155,148.5237056630681,152.7958984375,356500,0.0,0.0
2025-06-24 00:00:00-04:00,153.57088413516175,153.57088413516175,152.1898543854923,152.87539672851562,246600,0.0,0.0
2025-06-25 00:00:00-04:00,152.86545791807578,153.53112525522516,151.78250725734722,152.93499755859375,264700,0.0,0.0
2025-06-26 00:00:00-04:00,153.53112514721053,154.574341035503,152.13023567322224,153.4814453125,658200,0.0,0.0
2025-06-27 00:00:00-04:00,153.66028449532695,155.10090869233022,153.23305612343526,154.8127899169922,643100,0.0,0.0
2025-06-30 00:00:00-04:00,155.02143014126432,155.48839330201264,153.6106107560815,155.41883850097656,315500,0.0,0.0
2025-07-01 00:00:00-04:00,155.41885264847184,158.76707978246705,154.95190460537523,157.982177734375,338300,0.0,0.0
2025-07-02 00:00:00-04:00,157.99210676920643,159.4923407456575,157.62448812214086,159.28370666503906,293500,0.0,0.0
2025-07-03 00:00:00-04:00,159.56191078626273,160.3169927980258,158.7869538067758,159.99905395507812,235100,0.0,0.0
2025-07-07 00:00:00-04:00,159.90962585974881,161.32044524603683,159.51221749972524,159.91957092285156,313900,0.0,0.0
2025-07-08 00:00:00-04:00,159.85995374921617,161.529102294315,158.81675296370705,159.0154571533203,342700,0.0,0.0
2025-07-09 00:00:00-04:00,158.8962292224196,158.97571393365354,157.07807140851818,158.69752502441406,252800,0.0,0.0
2025-07-10 00:00:00-04:00,158.16100593891477,159.32344129609237,157.3065643310547,157.3065643310547,361600,0.0,0.0
2025-07-11 00:00:00-04:00,157.5350709161001,157.5350709161001,155.61755364990313,156.87933349609375,292000,0.0,0.0
2025-07-14 00:00:00-04:00,156.12425111054648,157.91261899615117,155.67716292918448,156.54153442382812,276600,0.0,0.0
2025-07-15 00:00:00-04:00,156.72038949096165,156.97870341867736,153.07411383203788,153.1635284423828,254200,0.0,0.0
2025-07-16 00:00:00-04:00,152.92506467781385,154.60414300247731,152.55746119613846,153.97821044921875,261900,0.0,0.0
2025-07-17 00:00:00-04:00,153.73976854986958,155.3989718771158,153.51124435091202,155.02142333984375,397700,0.0,0.0
2025-07-18 00:00:00-04:00,155.83614959991047,156.19382321666367,153.91861696671302,155.3691864013672,243100,0.0,0.0
2025-07-21 00:00:00-04:00,155.40892170141217,155.65730573721422,154.2365563293025,154.4451904296875,205900,0.0,0.0
2025-07-22 00:00:00-04:00,155.10091070494084,158.3299028119182,154.2265941447245,158.14112854003906,449900,0.0,0.0
2025-07-23 00:00:00-04:00,159.0353324921988,160.80382555616052,158.11133602610758,160.61505126953125,450500,0.0,0.0
2025-07-24 00:00:00-04:00,160.36596689139284,163.67370617715738,159.20027152118774,161.22279357910156,431900,0.45,0.0
2025-07-25 00:00:00-04:00,161.4519443159114,162.48809942211037,160.1866270976646,160.39585876464844,296300,0.0,0.0
2025-07-28 00:00:00-04:00,160.60507716525916,161.3821973048954,157.5763031854557,158.1143035888672,308500,0.0,0.0
2025-07-29 00:00:00-04:00,158.46301837287766,159.01099160157025,156.63977028603261,158.23387145996094,388200,0.0,0.0
2025-07-30 00:00:00-04:00,158.2139411794794,158.34345106823227,154.34825571028387,156.2113494873047,580700,0.0,0.0
2025-07-31 00:00:00-04:00,155.20507720090802,156.76929025695372,154.60728547959022,156.56005859375,679700,0.0,0.0
2025-08-01 00:00:00-04:00,156.3906864594005,157.5364361790711,140.5692884515745,140.82833862304688,1012300,0.0,0.0
2025-08-04 00:00:00-04:00,142.59179613946068,142.59179613946068,136.57409406621255,138.6165313720703,839000,0.0,0.0
2025-08-05 00:00:00-04:00,138.82574228984998,140.549368424906,137.1818379302022,139.70249938964844,540800,0.0,0.0
2025-08-06 00:00:00-04:00,139.79217373051944,140.2405099336514,137.04236517583132,138.02870178222656,515300,0.0,0.0
2025-08-07 00:00:00-04:00,139.28405592850498,140.9678212320078,138.3973411784471,139.9715118408203,564000,0.0,0.0
2025-08-08 00:00:00-04:00,140.1707689136227,141.5257502766756,140.06117427387304,140.2305450439453,428700,0.0,0.0
2025-08-11 00:00:00-04:00,140.80840868971592,141.09733172532074,138.68626481251795,139.35379028320312,349500,0.0,0.0
2025-08-12 00:00:00-04:00,139.7024996187182,140.56928389677475,138.71614787982762,138.96522521972656,286100,0.0,0.0
2025-08-13 00:00:00-04:00,139.17446660105043,140.91800810219684,138.73608801979466,140.9080352783203,729900,0.0,0.0
2025-08-14 00:00:00-04:00,139.67261570690306,139.67261570690306,135.9364554973346,137.82943725585938,875800,0.0,0.0
2025-08-15 00:00:00-04:00,137.84936634538602,138.43718523065303,137.36116927657673,138.20803833007812,770500,0.0,0.0
2025-08-18 00:00:00-04:00,138.37741292257056,139.0549112245806,136.84310312496342,137.381103515625,529500,0.0,0.0
2025-08-19 00:00:00-04:00,137.75970856476783,140.00140477286192,137.75970856476783,139.0748291015625,333100,0.0,0.0
2025-08-20 00:00:00-04:00,139.393648840335,140.72869975936982,138.74603862261242,140.65895080566406,519200,0.0,0.0
2025-08-21 00:00:00-04:00,140.1109987995753,141.3763008190009,139.72243873331917,140.12095642089844,270400,0.0,0.0
2025-08-22 00:00:00-04:00,140.73866449964885,142.801032315336,140.66893074489022,140.9080352783203,356500,0.0,0.0
2025-08-25 00:00:00-04:00,140.44973703337416,141.08737443990944,138.4471606165544,139.04493713378906,245800,0.0,0.0
2025-08-26 00:00:00-04:00,138.55675954638778,139.64273317507582,137.50065878188727,139.19439697265625,442900,0.0,0.0
2025-08-27 00:00:00-04:00,138.57667015211817,140.05121900303388,138.51689402079253,138.92538452148438,729100,0.0,0.0
2025-08-28 00:00:00-04:00,139.65268569461995,139.65268569461995,136.89290442125153,138.37741088867188,320800,0.0,0.0
2025-08-29 00:00:00-04:00,138.65637494364685,139.35378847092917,137.83940915525176,138.75601196289062,370700,0.0,0.0
2025-09-02 00:00:00-04:00,136.91283746702226,138.0187415215873,135.6674507029839,135.9065704345703,310600,0.0,0.0
2025-09-03 00:00:00-04:00,135.57778924348088,135.6774110651314,133.94384238415293,134.72096252441406,382300,0.0,0.0
2025-09-04 00:00:00-04:00,135.8467917014058,137.96892036901434,134.5416136276031,137.94900512695312,401800,0.0,0.0
2025-09-05 00:00:00-04:00,138.5069313024626,140.30029118860833,137.1220619019756,138.1083984375,440800,0.0,0.0
2025-09-08 00:00:00-04:00,138.0785196018611,139.48331954010914,137.1718743762563,137.7895965576172,616100,0.0,0.0
2025-09-09 00:00:00-04:00,137.74973055841448,138.9652292283821,134.60140444515423,136.54420471191406,637100,0.0,0.0
2025-09-10 00:00:00-04:00,135.6276095966407,136.95270298263142,134.3523347233892,135.74716186523438,685100,0.0,0.0
2025-09-11 00:00:00-04:00,136.2453102876287,137.76966245161407,135.3685531518816,136.59402465820312,477500,0.0,0.0
2025-09-12 00:00:00-04:00,136.11578066498313,136.54420159748256,134.7209536341175,134.7309112548828,261300,0.0,0.0
2025-09-15 00:00:00-04:00,135.46818707582165,135.66744591053393,134.13313616052721,134.35232543945312,298000,0.0,0.0
2025-09-16 00:00:00-04:00,134.29253521558843,134.92021499246542,133.6050945105264,134.71099853515625,474800,0.0,0.0
2025-09-17 00:00:00-04:00,134.9202234437148,136.56414315220525,133.69476708100424,134.15306091308594,377400,0.0,0.0
2025-09-18 00:00:00-04:00,134.40213401806383,135.00988336938318,133.57521058169633,134.0036163330078,254800,0.0,0.0
2025-09-19 00:00:00-04:00,134.16302167221522,134.6014002217238,132.8478860236895,133.94383239746094,877200,0.0,0.0
2025-09-22 00:00:00-04:00,133.62500584924183,134.44198681766053,132.18036032475496,132.2301788330078,402100,0.0,0.0
2025-09-23 00:00:00-04:00,132.51911249007324,133.45564579146554,131.48295736665602,131.53277587890625,319700,0.0,0.0
2025-09-24 00:00:00-04:00,131.51283362791114,132.8179964383377,130.8552658111778,131.01467895507812,353300,0.0,0.0
2025-09-25 00:00:00-04:00,131.01468707936854,132.0309269316582,129.78923076490094,130.3372039794922,388700,0.0,0.0
2025-09-26 00:00:00-04:00,130.84530934560345,131.9412405140255,130.47667974924482,131.8017578125,274400,0.0,0.0
2025-09-29 00:00:00-04:00,131.9113549736489,132.1903203820378,130.8751999142723,131.78184509277344,540600,0.0,0.0
2025-09-30 00:00:00-04:00,131.22391724742639,133.2663393474204,131.22391724742639,133.16671752929688,310400,0.0,0.0
2025-10-01 00:00:00-04:00,132.83793505008853,133.864132523027,131.8216951983283,133.6449432373047,310100,0.0,0.0
2025-10-02 00:00:00-04:00,133.16671601295707,133.89401760712443,132.46930248413395,132.6884765625,398500,0.0,0.0
2025-10-03 00:00:00-04:00,131.98110050874084,133.08700449280963,131.94123962144647,132.72833251953125,402000,0.0,0.0
2025-10-06 00:00:00-04:00,132.3995623608993,132.70841585837292,130.9250286298273,131.39329528808594,447100,0.0,0.0
2025-10-07 00:00:00-04:00,131.62244210672506,132.02095980591378,129.33092733020055,130.10804748535156,438800,0.0,0.0
2025-10-08 00:00:00-04:00,130.6958618827827,131.5228005222907,129.77925904443626,131.12428283691406,361300,0.0,0.0
2025-10-09 00:00:00-04:00,131.2139490956711,132.34974123954802,129.71948494833435,130.1279754638672,554200,0.0,0.0
2025-10-10 00:00:00-04:00,130.456750166944,131.5227932779699,129.41062229735738,130.44677734375,426000,0.0,0.0
2025-10-13 00:00:00-04:00,130.50657288985758,131.8615542727262,129.67963426919383,129.73941040039062,311400,0.0,0.0
2025-10-14 00:00:00-04:00,129.56007316445456,130.57631305211217,128.56376372233257,129.3209686279297,337400,0.0,0.0
2025-10-15 00:00:00-04:00,129.3209660189343,129.90878492933314,127.38812330781582,127.62724304199219,438300,0.0,0.0
2025-10-16 00:00:00-04:00,127.96597514472943,129.02206062166923,127.37814867651251,128.68331909179688,352700,0.0,0.0
2025-10-17 00:00:00-04:00,128.6833272427598,129.61986052200092,128.3744737575792,128.86265563964844,339700,0.0,0.0
2025-10-20 00:00:00-04:00,129.13165784992026,129.60988209007235,127.54752960271524,129.5202178955078,240500,0.0,0.0
2025-10-21 00:00:00-04:00,130.12796519186372,131.28368768983484,128.64345878313492,130.08811950683594,311600,0.0,0.0
2025-10-22 00:00:00-04:00,130.16782074524266,131.62243919986034,129.5002952524821,129.5800018310547,357500,0.0,0.0
2025-10-23 00:00:00-04:00,129.74000549316406,131.52999877929688,129.66000366210938,130.77000427246094,378600,0.48,0.0
2025-10-24 00:00:00-04:00,130.75,130.88999938964844,128.5399932861328,128.8800048828125,489300,0.0,0.0
2025-10-27 00:00:00-04:00,129.13999938964844,129.89999389648438,128.4499969482422,128.77999877929688,521700,0.0,0.0
2025-10-28 00:00:00-04:00,128.75,129.11000061035156,127.47000122070312,128.10000610351562,413500,0.0,0.0
2025-10-29 00:00:00-04:00,127.27999877929688,127.5,123.41999816894531,124.30999755859375,651100,0.0,0.0
2025-10-30 00:00:00-04:00,124.04000091552734,125.5199966430664,123.04000091552734,124.36000061035156,702600,0.0,0.0
2025-10-31 00:00:00-04:00,115.29000091552734,118.0999984741211,103.2300033569336,116.01000213623047,2758200,0.0,0.0
2025-11-03 00:00:00-05:00,116.08999633789062,116.08999633789062,108.29000091552734,113.12000274658203,1661000,0.0,0.0
2025-11-04 00:00:00-05:00,114.36000061035156,116.0,112.52999877929688,114.18000030517578,1029100,0.0,0.0
2025-11-05 00:00:00-05:00,114.33000183105469,116.04000091552734,112.7699966430664,115.56999969482422,896900,0.0,0.0
2025-11-06 00:00:00-05:00,115.0199966430664,116.95999908447266,113.80000305175781,116.1500015258789,880300,0.0,0.0
2025-11-07 00:00:00-05:00,116.2300033569336,116.91999816894531,114.69000244140625,116.22000122070312,697200,0.0,0.0
2025-11-10 00:00:00-05:00,115.98999786376953,116.7699966430664,114.0,116.37999725341797,514000,0.0,0.0
2025-11-11 00:00:00-05:00,116.95999908447266,119.51000213623047,116.95999908447266,118.2699966430664,484800,0.0,0.0
2025-11-12 00:00:00-05:00,118.33999633789062,119.66999816894531,117.91000366210938,118.16000366210938,547500,0.0,0.0
2025-11-13 00:00:00-05:00,118.30000305175781,121.87999725341797,118.30000305175781,120.19999694824219,679400,0.0,0.0
2025-11-14 00:00:00-05:00,119.7699966430664,120.69000244140625,118.38999938964844,118.61000061035156,521200,0.0,0.0
2025-11-17 00:00:00-05:00,118.48999786376953,119.48999786376953,117.56999969482422,119.33999633789062,820200,0.0,0.0
2025-11-18 00:00:00-05:00,119.66000366210938,120.11000061035156,118.05999755859375,119.30999755859375,817400,0.0,0.0
2025-11-19 00:00:00-05:00,119.51000213623047,119.51000213623047,117.70999908447266,118.0,598900,0.0,0.0
2025-11-20 00:00:00-05:00,118.0,119.61000061035156,117.37000274658203,118.58000183105469,507400,0.0,0.0
2025-11-21 00:00:00-05:00,118.12999725341797,122.23999786376953,118.12999725341797,121.5199966430664,509100,0.0,0.0
2025-11-24 00:00:00-05:00,120.8499984741211,122.4000015258789,120.44000244140625,121.47000122070312,740000,0.0,0.0
2025-11-25 00:00:00-05:00,122.41000366210938,124.08000183105469,122.41000366210938,123.44000244140625,543600,0.0,0.0
2025-11-26 00:00:00-05:00,123.0199966430664,124.5199966430664,123.0199966430664,123.80999755859375,538000,0.0,0.0
2025-11-28 00:00:00-05:00,123.62999725341797,126.08000183105469,123.62999725341797,124.75,315700,0.0,0.0
2025-12-01 00:00:00-05:00,124.87999725341797,124.95999908447266,123.02999877929688,123.27999877929688,536800,0.0,0.0
2025-12-02 00:00:00-05:00,123.7699966430664,123.86000061035156,120.80000305175781,121.5999984741211,325400,0.0,0.0
2025-12-03 00:00:00-05:00,121.44999694824219,124.26000213623047,121.41000366210938,122.05999755859375,543100,0.0,0.0
2025-12-04 00:00:00-05:00,122.19999694824219,124.08000183105469,121.93000030517578,122.0199966430664,708000,0.0,0.0
2025-12-05 00:00:00-05:00,121.98999786376953,123.51000213623047,120.62000274658203,121.91000366210938,537000,0.0,0.0
2025-12-08 00:00:00-05:00,120.91999816894531,122.0999984741211,119.30000305175781,120.06999969482422,496600,0.0,0.0
2025-12-09 00:00:00-05:00,119.5999984741211,119.8499984741211,115.36000061035156,115.72000122070312,640300,0.0,0.0
2025-12-10 00:00:00-05:00,116.16999816894531,117.80000305175781,115.12999725341797,117.16999816894531,734700,0.0,0.0
2025-12-11 00:00:00-05:00,117.95999908447266,118.66999816894531,117.16000366210938,118.01000213623047,389700,0.0,0.0
2025-12-12 00:00:00-05:00,118.5199966430664,121.63999938964844,117.6500015258789,121.47000122070312,656400,0.0,0.0
2025-12-15 00:00:00-05:00,121.4800033569336,122.45999908447266,120.4800033569336,122.33000183105469,588600,0.0,0.0
2025-12-16 00:00:00-05:00,122.66999816894531,123.8499984741211,119.5199966430664,122.83000183105469,644800,0.0,0.0
2025-12-17 00:00:00-05:00,122.11000061035156,124.5999984741211,120.08000183105469,123.62999725341797,567300,0.0,0.0
2025-12-18 00:00:00-05:00,123.66999816894531,124.12000274658203,122.02999877929688,122.62000274658203,457100,0.0,0.0
2025-12-19 00:00:00-05:00,123.33999633789062,124.33000183105469,121.26000213623047,121.38999938964844,1300400,0.0,0.0
2025-12-22 00:00:00-05:00,121.38999938964844,123.69999694824219,121.06999969482422,122.73999786376953,527800,0.0,0.0
2025-12-23 00:00:00-05:00,122.87000274658203,123.02999877929688,121.31999969482422,122.19000244140625,311700,0.0,0.0
2025-12-24 00:00:00-05:00,122.52999877929688,123.16999816894531,121.76000213623047,122.75,198000,0.0,0.0
2025-12-26 00:00:00-05:00,122.37000274658203,123.4800033569336,121.72000122070312,123.25,306000,0.0,0.0
2025-12-29 00:00:00-05:00,123.29000091552734,124.30999755859375,122.31999969482422,123.20999908447266,400200,0.0,0.0
2025-12-30 00:00:00-05:00,122.80000305175781,124.30000305175781,122.41999816894531,122.73999786376953,289800,0.0,0.0
2025-12-31 00:00:00-05:00,121.5199966430664,123.33000183105469,121.3499984741211,121.95999908447266,314300,0.0,0.0
2026-01-02 00:00:00-05:00,121.73999786376953,123.0,120.77999877929688,122.54000091552734,295100,0.0,0.0
2026-01-05 00:00:00-05:00,121.76000213623047,124.58000183105469,121.76000213623047,123.0,435700,0.0,0.0
2026-01-06 00:00:00-05:00,122.22000122070312,122.8499984741211,120.11000061035156,120.55999755859375,777200,0.0,0.0
2026-01-07 00:00:00-05:00,120.66999816894531,121.94999694824219,117.61000061035156,120.44000244140625,478500,0.0,0.0
2026-01-08 00:00:00-05:00,119.91999816894531,123.37000274658203,119.5199966430664,122.44000244140625,330000,0.0,0.0
2026-01-09 00:00:00-05:00,122.08000183105469,124.97000122070312,121.45999908447266,123.8499984741211,429100,0.0,0.0
2026-01-12 00:00:00-05:00,124.0,125.30000305175781,122.9800033569336,125.12999725341797,477300,0.0,0.0
2026-01-13 00:00:00-05:00,125.05000305175781,125.44000244140625,122.54000091552734,123.5,351900,0.0,0.0
2026-01-14 00:00:00-05:00,124.11000061035156,127.16000366210938,124.11000061035156,126.8499984741211,611700,0.0,0.0
2026-01-15 00:00:00-05:00,127.13999938964844,127.22000122070312,124.5199966430664,125.11000061035156,381000,0.0,0.0
2026-01-16 00:00:00-05:00,124.0,125.19999694824219,123.23999786376953,124.70999908447266,363400,0.0,0.0
