Date,Open,High,Low,Close,Volume,Dividends,Stock Splits
2024-02-12 00:00:00-05:00,135.73078635184487,137.0085026070029,134.12143715495355,134.21897888183594,491300,0.0,0.0
2024-02-13 00:00:00-05:00,133.32161874767397,133.94584695091822,131.6537508781135,132.58033752441406,275900,0.0,0.0
2024-02-14 00:00:00-05:00,132.90223112662508,134.07267224010712,131.83909483523,133.78981018066406,335000,0.0,0.0
2024-02-15 00:00:00-05:00,133.78979666900148,134.41402492118743,131.25387590571037,131.7122802734375,471400,0.0,0.0
2024-02-16 00:00:00-05:00,132.03413244121452,134.5993272816051,131.71226269873875,134.1116485595703,453900,0.0,0.0
2024-02-20 00:00:00-05:00,133.76053124158545,136.68660383536326,133.57521092940223,136.24769592285156,373000,0.0,0.0
2024-02-21 00:00:00-05:00,135.6527065632416,136.65732347673705,135.56492797066957,136.55003356933594,276300,0.0,0.0
2024-02-22 00:00:00-05:00,137.00848334181902,138.91042768636325,136.61834625470385,137.9838409423828,295700,0.0,0.0
2024-02-23 00:00:00-05:00,138.47150982674466,138.54954021513512,137.1352747721481,137.8765411376953,190300,0.0,0.0
2024-02-26 00:00:00-05:00,138.01306592964593,138.5592636679826,137.3303187567251,138.42271423339844,199200,0.0,0.0
2024-02-27 00:00:00-05:00,138.42269695895575,138.6762844821736,136.35494438393405,136.8523712158203,244600,0.0,0.0
2024-02-28 00:00:00-05:00,136.2086851175477,137.75951503785495,135.89657841947988,136.94996643066406,189600,0.0,0.0
2024-02-29 00:00:00-05:00,137.16452724747361,138.13988472798977,136.38423828650588,136.99871826171875,250600,0.0,0.0
2024-03-01 00:00:00-05:00,136.43300051136615,137.320564451613,136.12087899360273,136.8328857421875,151400,0.0,0.0
2024-03-04 00:00:00-05:00,137.22306836690487,138.61782264444943,137.09626711157304,138.46177673339844,260300,0.0,0.0
2024-03-05 00:00:00-05:00,138.76411046328988,139.68094885998562,138.247172198391,139.00794982910156,190200,0.0,0.0
2024-03-06 00:00:00-05:00,139.40783874026704,140.10034910578443,138.96893084683097,139.54440307617188,184000,0.0,0.0
2024-03-07 00:00:00-05:00,140.939151554329,141.56337972714795,140.29541206532937,141.08544921875,250100,0.0,0.0
2024-03-08 00:00:00-05:00,141.1439931095105,141.49512241162816,139.44686566881276,139.56390380859375,185200,0.0,0.0
2024-03-11 00:00:00-04:00,139.27130541234575,139.84677770831638,138.48126813613334,139.22254943847656,226700,0.0,0.0
2024-03-12 00:00:00-04:00,139.28105411326553,139.32982496486827,137.9935750682701,138.90066528320312,242200,0.0,0.0
2024-03-13 00:00:00-04:00,139.47612706519533,139.47612706519533,137.4571298303798,137.6814727783203,336800,0.0,0.0
2024-03-14 00:00:00-04:00,137.87653425906194,138.1301218465984,136.9011767770037,137.45712280273438,235200,0.0,0.0
2024-03-15 00:00:00-04:00,136.58904099147372,138.9006481031154,136.29644568359598,137.525390625,599500,0.0,0.0
2024-03-18 00:00:00-04:00,137.45712279692614,137.8180151855588,135.5064078328921,135.82827758789062,299700,0.0,0.0
2024-03-19 00:00:00-04:00,135.4576479614325,136.8621650763059,135.4576479614325,136.07211303710938,253000,0.0,0.0
2024-03-20 00:00:00-04:00,136.18919495543807,136.61835470748304,135.7112643437922,136.52081298828125,220000,0.0,0.0
2024-03-21 00:00:00-04:00,136.8524386152754,138.11065840202562,135.86733268089029,137.6619873046875,255800,0.0,0.0
2024-03-22 00:00:00-04:00,138.51050894714137,138.93966861515497,137.57417411036076,138.10086059570312,276000,0.0,0.0
2024-03-25 00:00:00-04:00,137.72046468780368,140.5002392871128,137.69120515583396,139.43710327148438,316300,0.0,0.0
2024-03-26 00:00:00-04:00,139.31029562951198,140.75382037704898,139.1054640323828,139.67117309570312,314200,0.0,0.0
2024-03-27 00:00:00-04:00,140.12957528424087,141.57309985698194,140.12957528424087,141.09518432617188,218200,0.0,0.0
2024-03-28 00:00:00-04:00,141.25126737718873,141.768205614296,140.11008610970114,140.34417724609375,247800,0.0,0.0
2024-04-01 00:00:00-04:00,140.24665139377976,140.24665139377976,138.61780611967046,138.7836151123047,204400,0.0,0.0
2024-04-02 00:00:00-04:00,138.34470981073065,138.34470981073065,136.93044435521594,137.16453552246094,202600,0.0,0.0
2024-04-03 00:00:00-04:00,137.20352410981707,137.71071412661163,136.42323521077296,137.40835571289062,258700,0.0,0.0
2024-04-04 00:00:00-04:00,138.33495787722,139.232285003393,137.49614982059262,138.25692749023438,403600,0.0,0.0
2024-04-05 00:00:00-04:00,137.89604531062415,139.242028512989,137.4766338551034,138.23741149902344,288300,0.0,0.0
2024-04-08 00:00:00-04:00,138.1788883078863,138.87139864657004,136.93043196113197,137.04747009277344,312500,0.0,0.0
2024-04-09 00:00:00-04:00,136.95966110694525,137.62291176556388,135.9257848194344,136.8523712158203,242600,0.0,0.0
2024-04-10 00:00:00-04:00,135.55519534314038,136.76464412728015,135.0382570047621,135.96484375,200700,0.0,0.0
2024-04-11 00:00:00-04:00,135.82827866294963,136.58905631432242,135.0382414775067,135.7014923095703,265300,0.0,0.0
2024-04-12 00:00:00-04:00,134.765143986109,135.52592164547036,132.60961224550994,133.8190460205078,299200,0.0,0.0
2024-04-15 00:00:00-04:00,135.19430322171078,136.36472924127222,134.43352556485712,134.79440307617188,319600,0.0,0.0
2024-04-16 00:00:00-04:00,134.39450046903713,135.95507838838475,133.9751038968422,135.17478942871094,281700,0.0,0.0
2024-04-17 00:00:00-04:00,135.45766906073504,136.04287469456995,134.940730720265,134.98948669433594,565400,0.0,0.0
2024-04-18 00:00:00-04:00,134.97971775931973,136.00384606481703,134.81390877770949,135.68197631835938,246600,0.0,0.0
2024-04-19 00:00:00-04:00,135.6331968965318,136.4720048511041,135.35034980054974,135.9062957763672,276600,0.0,0.0
2024-04-22 00:00:00-04:00,136.11112276413195,137.67168561275685,135.81851257914843,136.86215209960938,298800,0.0,0.0
2024-04-23 00:00:00-04:00,136.32572436136581,137.68147071511345,136.08188498203873,136.69635009765625,417200,0.0,0.0
2024-04-24 00:00:00-04:00,136.90180421841626,137.83110967788295,136.59855858783234,136.9604949951172,559200,0.41,0.0
2024-04-25 00:00:00-04:00,136.79417905028185,138.17347180247913,135.8942191136086,137.12677001953125,694400,0.0,0.0
2024-04-26 00:00:00-04:00,138.9071270669708,145.27532871602952,138.80929917592488,140.20816040039062,489500,0.0,0.0
2024-04-29 00:00:00-04:00,141.74396667243153,144.79602095385542,141.22551165191058,143.19174194335938,676700,0.0,0.0
2024-04-30 00:00:00-04:00,142.56566921431133,142.91782871752156,140.9222532238501,141.23529052734375,585100,0.0,0.0
2024-05-01 00:00:00-04:00,141.83202655109724,144.00367466578803,141.43095304197814,142.21353149414062,359600,0.0,0.0
2024-05-02 00:00:00-04:00,142.58522633954087,143.5341001651165,142.1254621178108,142.7417449951172,356500,0.0,0.0
2024-05-03 00:00:00-04:00,143.90580390304194,143.92537246328965,141.68524249772273,143.61233520507812,303300,0.0,0.0
2024-05-06 00:00:00-04:00,144.54165813146784,145.83291459114125,143.95473558961254,145.7937774658203,260200,0.0,0.0
2024-05-07 00:00:00-04:00,145.0894834229659,147.10461264943362,145.0894834229659,146.458984375,392900,0.0,0.0
2024-05-08 00:00:00-04:00,146.45898941866878,147.5839356018341,146.22421142176023,147.50567626953125,223500,0.0,0.0
2024-05-09 00:00:00-04:00,147.7111107380912,148.42520663046773,145.39273582945796,145.8329315185547,299100,0.0,0.0
2024-05-10 00:00:00-04:00,145.70577088725506,145.75468484061096,144.86450163943945,145.25579833984375,186300,0.0,0.0
2024-05-13 00:00:00-04:00,145.29488969836768,146.22419490905267,143.6612655029354,144.64926147460938,167500,0.0,0.0
2024-05-14 00:00:00-04:00,145.06991603597936,145.07969285484432,144.257992276957,144.67861938476562,137600,0.0,0.0
2024-05-15 00:00:00-04:00,144.7373251400297,145.10903830079263,143.57324185763076,144.07212829589844,211100,0.0,0.0
2024-05-16 00:00:00-04:00,144.16016631041785,144.67862131957352,143.24063782581982,144.3264617919922,235500,0.0,0.0
2024-05-17 00:00:00-04:00,144.62970048169964,144.94272283319833,143.92538153277894,144.45361328125,169500,0.0,0.0
2024-05-20 00:00:00-04:00,144.37538004948476,145.17752702431363,143.83735645983634,144.9427490234375,163400,0.0,0.0
2024-05-21 00:00:00-04:00,144.71777058155686,145.44164333540036,143.88627817753166,145.35360717773438,280400,0.0,0.0
2024-05-22 00:00:00-04:00,144.84492077803603,145.58836197942233,144.25798330095628,145.54922485351562,283300,0.0,0.0
2024-05-23 00:00:00-04:00,145.4220766972729,145.70575371098772,144.34602955606266,144.50254821777344,171700,0.0,0.0
2024-05-24 00:00:00-04:00,145.24599160884495,145.58837432057103,144.15039081362758,144.86448669433594,162300,0.0,0.0
2024-05-28 00:00:00-04:00,144.40470973047522,144.56122838070533,142.64392715792664,143.51454162597656,318400,0.0,0.0
2024-05-29 00:00:00-04:00,142.4776274189923,143.50476061409208,141.3624580739689,141.68527221679688,229700,0.0,0.0
2024-05-30 00:00:00-04:00,141.9689740793988,143.77867085777473,141.8418007918825,142.95697021484375,328100,0.0,0.0
2024-05-31 00:00:00-04:00,142.9080336791022,144.61014039312926,142.74173821286894,144.4731903076172,358900,0.0,0.0
2024-06-03 00:00:00-04:00,145.26557439720267,145.26557439720267,143.09392623230076,144.9329833984375,266200,0.0,0.0
2024-06-04 00:00:00-04:00,144.4340488422392,145.15793637330214,143.5047436523007,144.96229553222656,287900,0.0,0.0
2024-06-05 00:00:00-04:00,144.5025402991468,144.97208133210754,143.87648061305237,144.69818115234375,229200,0.0,0.0
2024-06-06 00:00:00-04:00,144.7862212470873,144.7862212470873,142.2330684881502,142.7808837890625,197600,0.0,0.0
2024-06-07 00:00:00-04:00,142.595015935118,143.14281629493723,142.281978628684,142.3798065185547,179100,0.0,0.0
2024-06-10 00:00:00-04:00,141.67550401275804,142.6341547541383,140.85380337728924,142.4189453125,125800,0.0,0.0
2024-06-11 00:00:00-04:00,141.7537411225742,142.56566481118944,141.20594078481926,142.3308868408203,147700,0.0,0.0
2024-06-12 00:00:00-04:00,143.05479052154735,143.12325810826857,140.93205651012718,142.65371704101562,221300,0.0,0.0
2024-06-13 00:00:00-04:00,142.71240780861706,143.3384675404348,141.8613618255133,142.65371704101562,232400,0.0,0.0
2024-06-14 00:00:00-04:00,141.92983524372966,142.21352720071462,140.55054244265887,141.5972442626953,141500,0.0,0.0
2024-06-17 00:00:00-04:00,141.71461561671782,143.48519004157248,141.42116178774597,143.142822265625,303800,0.0,0.0
2024-06-18 00:00:00-04:00,143.28953201749397,144.47318371619113,143.27975519984625,143.49496459960938,219900,0.0,0.0
2024-06-20 00:00:00-04:00,143.46564765792573,144.3166936815853,142.49720516702743,142.6341552734375,199900,0.0,0.0
2024-06-21 00:00:00-04:00,142.69282373637006,143.9351662458705,142.14502339636854,143.6514892578125,444100,0.0,0.0
2024-06-24 00:00:00-04:00,144.01343211075954,145.00142813124864,143.47540856437814,143.52432250976562,182900,0.0,0.0
2024-06-25 00:00:00-04:00,143.59278987668708,143.60258162161415,141.35267447513021,141.704833984375,194500,0.0,0.0
2024-06-26 00:00:00-04:00,141.10812684702637,141.6363586745215,139.84623058185173,140.57989501953125,192400,0.0,0.0
2024-06-27 00:00:00-04:00,140.7364044189453,140.74619616476411,139.1712625114431,140.7364044189453,377300,0.0,0.0
2024-06-28 00:00:00-04:00,140.64835418559142,141.17660090790503,137.03872298006291,137.7430419921875,435100,0.0,0.0
2024-07-01 00:00:00-04:00,138.3006143901146,138.39842733948132,135.37573405023082,135.5224609375,306400,0.0,0.0
2024-07-02 00:00:00-04:00,135.463800767183,137.4398078783609,134.75948169639565,137.34197998046875,259400,0.0,0.0
2024-07-03 00:00:00-04:00,137.81154353272655,138.3202068356118,137.50829792965664,138.14413452148438,143300,0.0,0.0
2024-07-05 00:00:00-04:00,137.9191362809392,138.35933195448024,136.68657048329493,137.83108520507812,207000,0.0,0.0
2024-07-08 00:00:00-04:00,138.56474550287118,139.3962378042094,138.41801859154825,138.42779541015625,249300,0.0,0.0
2024-07-09 00:00:00-04:00,137.79195401961266,138.19302746496587,136.7061301349004,136.98980712890625,238400,0.0,0.0
2024-07-10 00:00:00-04:00,137.68433844360777,138.54517602880978,137.50826617014675,138.2125701904297,142000,0.0,0.0
2024-07-11 00:00:00-04:00,138.12454847030526,140.1788147670624,137.6843528142689,138.9951629638672,244500,0.0,0.0
2024-07-12 00:00:00-04:00,140.28642803925482,142.32112589674372,140.28642803925482,141.4407196044922,263900,0.0,0.0
2024-07-15 00:00:00-04:00,141.60700253343475,142.51675412879416,140.02229224489653,140.30596923828125,319900,0.0,0.0
2024-07-16 00:00:00-04:00,140.71684962202943,142.1352645949935,140.71684962202943,141.411376953125,178800,0.0,0.0
2024-07-17 00:00:00-04:00,141.1961558207013,142.59501703919386,141.1961558207013,141.704833984375,242300,0.0,0.0
2024-07-18 00:00:00-04:00,141.46027832412807,144.0427764007408,141.45050150570088,143.09390258789062,434200,0.0,0.0
2024-07-19 00:00:00-04:00,143.39715857359943,143.39715857359943,141.50920255553004,142.76132202148438,251200,0.0,0.0
2024-07-22 00:00:00-04:00,142.81022503932832,144.34602140714523,142.08633746461317,143.9840850830078,235700,0.0,0.0
2024-07-23 00:00:00-04:00,144.64925840495943,145.2753180529557,142.4971792978748,142.85911560058594,234500,0.0,0.0
2024-07-24 00:00:00-04:00,142.88850513200444,143.43630557023832,140.76575604418446,141.0005340576172,250600,0.0,0.0
2024-07-25 00:00:00-04:00,140.15662064812102,141.3537868323138,138.57675478033786,138.84170532226562,558100,0.45,0.0
2024-07-26 00:00:00-04:00,140.45100532827604,148.45826121883343,139.68560597824617,143.91493225097656,562800,0.0,0.0
2024-07-29 00:00:00-04:00,143.83643364775924,145.57330838450207,142.45282131555413,145.03359985351562,390900,0.0,0.0
2024-07-30 00:00:00-04:00,144.6214838920618,145.13174023806064,142.68835531038076,143.02198791503906,411000,0.0,0.0
2024-07-31 00:00:00-04:00,143.75793131592994,146.06395190310548,142.68833664919208,144.22894287109375,280600,0.0,0.0
2024-08-01 00:00:00-04:00,144.13082869961707,146.7410296810768,142.707956599424,144.27801513671875,335300,0.0,0.0
2024-08-02 00:00:00-04:00,143.8364454066084,144.24858241673073,141.0594130775853,142.96310424804688,213500,0.0,0.0
2024-08-05 00:00:00-04:00,140.7453563783783,140.7453563783783,136.8692930961989,138.0468292236328,448500,0.0,0.0
2024-08-06 00:00:00-04:00,138.68469153261674,143.3555919877559,138.4688081318192,142.21730041503906,476000,0.0,0.0
2024-08-07 00:00:00-04:00,143.2770808419969,144.50368421019382,140.7846293860225,140.91220092773438,353600,0.0,0.0
2024-08-08 00:00:00-04:00,141.75612338985297,143.42430119656396,141.75612338985297,142.8355255126953,268600,0.0,0.0
2024-08-09 00:00:00-04:00,142.6883251235522,142.6883251235522,140.7846342348352,141.25564575195312,263200,0.0,0.0
2024-08-12 00:00:00-04:00,141.27528177951416,141.48134277649905,140.09774544861156,140.60800170898438,221100,0.0,0.0
2024-08-13 00:00:00-04:00,140.82389704957893,142.58040174400242,140.42158245888365,141.6678009033203,212000,0.0,0.0
2024-08-14 00:00:00-04:00,141.4322792863365,142.09954433022483,140.8042589619534,141.20657348632812,115700,0.0,0.0
2024-08-15 00:00:00-04:00,142.28600406437442,144.58220219157255,142.28600406437442,144.2583770751953,277500,0.0,0.0
2024-08-16 00:00:00-04:00,143.37521760611233,144.09154979316477,142.88457625025995,143.9738006591797,250600,0.0,0.0
2024-08-19 00:00:00-04:00,143.5812884602749,144.96488565497833,143.18876640563337,144.2191162109375,191200,0.0,0.0
2024-08-20 00:00:00-04:00,144.22894469422167,145.53405264163237,144.22894469422167,145.33779907226562,387200,0.0,0.0
2024-08-21 00:00:00-04:00,145.39665113837094,146.7704558576483,144.69994882899036,146.53494262695312,267300,0.0,0.0
2024-08-22 00:00:00-04:00,146.77047026304288,147.58492178111612,145.88730679114315,146.20132446289062,200400,0.0,0.0
2024-08-23 00:00:00-04:00,146.85879187492884,147.7125031452807,146.6429084545568,147.6241912841797,221400,0.0,0.0
2024-08-26 00:00:00-04:00,147.859667224301,149.81242515034424,147.32978116462516,147.3494110107422,235500,0.0,0.0
2024-08-27 00:00:00-04:00,147.20223560709272,148.7035971765604,147.0354193186172,148.36996459960938,208300,0.0,0.0
2024-08-28 00:00:00-04:00,148.10499968154102,149.12554213624935,148.10499968154102,148.70358276367188,249000,0.0,0.0
2024-08-29 00:00:00-04:00,149.69468380657958,150.04794618913405,148.379768538866,149.4297332763672,187100,0.0,0.0
2024-08-30 00:00:00-04:00,149.35121764870436,150.568013535751,148.8017017555817,150.32269287109375,178500,0.0,0.0
2024-09-03 00:00:00-04:00,149.26290596951492,149.5278564801322,146.92744844795305,147.2316436767578,362400,0.0,0.0
2024-09-04 00:00:00-04:00,146.7999282021472,148.07558399683637,146.7999282021472,147.9087677001953,175800,0.0,0.0
2024-09-05 00:00:00-04:00,148.25220343795263,148.9194685377967,147.14334911082645,147.89894104003906,200600,0.0,0.0
2024-09-06 00:00:00-04:00,147.56532726676082,150.25403282943424,147.56532726676082,149.52789306640625,319100,0.0,0.0
2024-09-09 00:00:00-04:00,149.714315855821,150.1951348188797,148.60546156059576,149.06666564941406,241500,0.0,0.0
2024-09-10 00:00:00-04:00,149.027410959184,149.93018931971082,148.60546655104966,148.6741485595703,158100,0.0,0.0
2024-09-11 00:00:00-04:00,147.96762598087645,148.05595281199558,145.84806652457317,148.01669311523438,178000,0.0,0.0
2024-09-12 00:00:00-04:00,148.06575815275983,149.16479007551516,147.1629797914698,149.11573791503906,200400,0.0,0.0
2024-09-13 00:00:00-04:00,149.34142142402513,150.14606547845202,149.05684104667466,149.4297332763672,138600,0.0,0.0
2024-09-16 00:00:00-04:00,150.1755170064684,150.30308856518658,149.22368644119183,150.12646484375,182900,0.0,0.0
2024-09-17 00:00:00-04:00,151.1175559932651,152.65817722526162,149.02741877154858,150.16571044921875,259900,0.0,0.0
2024-09-18 00:00:00-04:00,150.88202856716077,152.5796584864247,149.85169366969927,150.2049560546875,214200,0.0,0.0
2024-09-19 00:00:00-04:00,152.11847053144703,155.83752591863228,152.11847053144703,153.96327209472656,412400,0.0,0.0
2024-09-20 00:00:00-04:00,153.38431316379166,153.38431316379166,151.5885638302304,152.99180603027344,663300,0.0,0.0
2024-09-23 00:00:00-04:00,153.24692402795387,153.97307864741222,151.84369689396294,153.04086303710938,315800,0.0,0.0
2024-09-24 00:00:00-04:00,153.25672927528666,154.1398927144178,153.1095428553579,153.6983184814453,246200,0.0,0.0
2024-09-25 00:00:00-04:00,154.3557850842914,154.9151084857173,152.95254291560093,154.1987762451172,284100,0.0,0.0
2024-09-26 00:00:00-04:00,154.98379108027459,156.08282290609407,154.74827784337654,155.41555786132812,371600,0.0,0.0
2024-09-27 00:00:00-04:00,155.7099344145292,158.52622599531733,155.29779746999125,156.8972930908203,354300,0.0,0.0
2024-09-30 00:00:00-04:00,156.30851747856306,157.41737174073054,155.95525510134422,157.19168090820312,289800,0.0,0.0
2024-10-01 00:00:00-04:00,157.53512293074894,157.53512293074894,156.07302124547277,156.97579956054688,192200,0.0,0.0
2024-10-02 00:00:00-04:00,156.86786522775682,157.1131859218467,155.00343394194854,155.7786407470703,186900,0.0,0.0
2024-10-03 00:00:00-04:00,155.03287224162221,157.45664191294162,153.7081344955956,155.965087890625,367000,0.0,0.0
2024-10-04 00:00:00-04:00,156.94636623239919,158.4477276497133,156.34778315291413,157.5743865966797,350500,0.0,0.0
2024-10-07 00:00:00-04:00,156.4066673148656,156.65198801866413,155.05249223847767,155.7197723388672,223300,0.0,0.0
2024-10-08 00:00:00-04:00,155.31741937724777,156.04357394137241,154.15951301700102,155.7001190185547,205900,0.0,0.0
2024-10-09 00:00:00-04:00,155.38612327136772,157.05430088537946,155.16041746715078,156.71084594726562,152600,0.0,0.0
2024-10-10 00:00:00-04:00,155.09175379452122,156.3968617511509,155.09175379452122,156.23985290527344,168500,0.0,0.0
2024-10-11 00:00:00-04:00,157.9276467872525,158.88929968127525,157.3486935634256,158.52622985839844,194400,0.0,0.0
2024-10-14 00:00:00-04:00,161.9018649008837,164.6200076497608,160.40050331886653,164.06068420410156,469700,0.0,0.0
2024-10-15 00:00:00-04:00,164.1882208195928,166.48441863590148,163.3737544201633,165.5227508544922,397300,0.0,0.0
2024-10-16 00:00:00-04:00,165.5424057896614,166.03304719091895,162.81444079652437,162.93218994140625,330000,0.0,0.0
2024-10-17 00:00:00-04:00,163.85458770692577,165.16951795794049,163.40320603158116,164.74755859375,238200,0.0,0.0
2024-10-18 00:00:00-04:00,165.9349131805859,165.9349131805859,164.6396128089946,165.4737091064453,171500,0.0,0.0
2024-10-21 00:00:00-04:00,165.31671090464823,165.33634075271212,163.18732907191952,163.21676635742188,217900,0.0,0.0
2024-10-22 00:00:00-04:00,162.61818533475102,163.2560131596747,161.72521440130814,162.7064971923828,228500,0.0,0.0
2024-10-23 00:00:00-04:00,163.39339265700085,164.83587956219833,163.04995266297445,164.51205444335938,318100,0.0,0.0
2024-10-24 00:00:00-04:00,165.61406215698588,165.6238959901865,163.47893428707053,163.8725128173828,547300,0.45,0.0
2024-10-25 00:00:00-04:00,166.20439865201706,167.11945554985263,161.9636896762729,166.19456481933594,518900,0.0,0.0
2024-10-28 00:00:00-04:00,167.1686578390729,168.65439247657514,166.04698523900794,166.38153076171875,350000,0.0,0.0
2024-10-29 00:00:00-04:00,166.31265750774162,166.7652691128245,164.94500387172394,165.9879608154297,338100,0.0,0.0
2024-10-30 00:00:00-04:00,165.64357635714168,167.4638263639047,165.41726307531505,166.31263732910156,290300,0.0,0.0
2024-10-31 00:00:00-04:00,166.37168581757254,167.5425576408125,165.16146364493636,165.21066284179688,329900,0.0,0.0
2024-11-01 00:00:00-04:00,165.39760088847163,168.2411401404729,164.92530664304553,166.68653869628906,316300,0.0,0.0
2024-11-04 00:00:00-05:00,166.90299370700552,167.82788445184153,165.47629223144753,165.5550079345703,191800,0.0,0.0
2024-11-05 00:00:00-05:00,165.04339079182503,167.6212664555782,165.04339079182503,167.5720672607422,206200,0.0,0.0
2024-11-06 00:00:00-05:00,172.33425000176234,172.33425000176234,169.37264472673408,170.37625122070312,264100,0.0,0.0
2024-11-07 00:00:00-05:00,171.39949548614092,172.6392488840695,170.75010227898625,171.90130615234375,412300,0.0,0.0
2024-11-08 00:00:00-05:00,171.89149137678803,174.98101162542764,171.68487577850354,172.9344482421875,309200,0.0,0.0
2024-11-11 00:00:00-05:00,173.48545653213273,175.16795787019572,173.07219531256996,173.31817626953125,189100,0.0,0.0
2024-11-12 00:00:00-05:00,173.8101212713204,174.39064768351193,172.1374539294353,172.87539672851562,179800,0.0,0.0
2024-11-13 00:00:00-05:00,172.67860412597656,173.55429559194502,172.23584147706825,172.67860412597656,168400,0.0,0.0
2024-11-14 00:00:00-05:00,172.3342401368319,172.96395074115134,171.11418428604836,171.30113220214844,198200,0.0,0.0
2024-11-15 00:00:00-05:00,170.18929849303566,170.96659167816782,163.498613744456,163.8134765625,620500,0.0,0.0
2024-11-18 00:00:00-05:00,163.71507377564353,165.1220925590242,161.68819323282284,164.01025390625,384400,0.0,0.0
2024-11-19 00:00:00-05:00,163.74459395748048,164.97449868466995,163.52812952441627,164.2168731689453,287600,0.0,0.0
2024-11-20 00:00:00-05:00,164.31525700791536,166.22407137770966,162.98695401473316,166.01744079589844,221800,0.0,0.0
2024-11-21 00:00:00-05:00,165.97809989223597,167.49333586223904,165.04337533185526,167.1489715576172,205100,0.0,0.0
2024-11-22 00:00:00-05:00,167.44414141383476,169.30377176809216,167.44414141383476,168.7527618408203,241600,0.0,0.0
2024-11-25 00:00:00-05:00,169.2841049367157,171.2224361628456,168.97909093899247,169.72686767578125,270100,0.0,0.0
2024-11-26 00:00:00-05:00,170.08107094911196,170.08107094911196,168.40840346938074,169.2742462158203,140300,0.0,0.0
2024-11-27 00:00:00-05:00,169.89411375858853,171.08466811356843,168.76260744050867,168.96922302246094,167200,0.0,0.0
2024-11-29 00:00:00-05:00,169.81541184718648,170.70095231078196,169.3234499274622,170.17947387695312,117300,0.0,0.0
2024-12-02 00:00:00-05:00,170.19913044726937,170.32704534237342,168.0935341686711,169.982666015625,170900,0.0,0.0
2024-12-03 00:00:00-05:00,170.6615714264747,170.6615714264747,168.33951077604863,169.62844848632812,160100,0.0,0.0
2024-12-04 00:00:00-05:00,169.12665553642208,170.11057930241756,168.28048049712658,169.81539916992188,173400,0.0,0.0
2024-12-05 00:00:00-05:00,169.24472446643097,169.66781950002706,167.78852147173296,168.349365234375,245000,0.0,0.0
2024-12-06 00:00:00-05:00,168.84133731004735,169.87444533346505,168.10339442847106,168.3985595703125,209200,0.0,0.0
2024-12-09 00:00:00-05:00,168.80198291120112,170.6812811748981,167.49336231460265,168.0443572998047,301700,0.0,0.0
2024-12-10 00:00:00-05:00,167.97546663297192,168.61501107586,165.48614070458325,168.16241455078125,287000,0.0,0.0
2024-12-11 00:00:00-05:00,169.11683694116255,171.30114909955935,168.98892203574263,169.5399169921875,418600,0.0,0.0
2024-12-12 00:00:00-05:00,168.910192781725,169.8252497001867,168.03450122184512,168.88067626953125,178300,0.0,0.0
2024-12-13 00:00:00-05:00,168.1624292110355,168.25097875451164,167.0899558151938,167.46383666992188,153200,0.0,0.0
2024-12-16 00:00:00-05:00,167.40479346088532,168.1820866510521,164.89578478723115,164.93515014648438,236100,0.0,0.0
2024-12-17 00:00:00-05:00,164.2168715592174,164.22672040556904,160.22214344662177,160.46812438964844,511900,0.0,0.0
2024-12-18 00:00:00-05:00,161.05847804620504,161.77673816657958,155.37140007798456,155.6665802001953,468600,0.0,0.0
2024-12-19 00:00:00-05:00,155.9617658133815,158.9725854395851,155.68626833336077,156.31597900390625,404700,0.0,0.0
2024-12-20 00:00:00-05:00,156.1683816857253,157.21133847783258,154.93847697550726,155.63705444335938,730200,0.0,0.0
2024-12-23 00:00:00-05:00,154.64331540050958,156.34549951994808,154.43669979194954,155.97161865234375,194900,0.0,0.0
2024-12-24 00:00:00-05:00,156.2274252507946,156.8571359043753,155.38125015253118,156.78826904296875,100500,0.0,0.0
2024-12-26 00:00:00-05:00,155.87320014251569,157.06375449717027,155.87320014251569,156.29629516601562,164500,0.0,0.0
2024-12-27 00:00:00-05:00,155.28286230113363,157.01456279519272,155.07623169589766,155.6075439453125,145000,0.0,0.0
2024-12-30 00:00:00-05:00,154.47602126942652,154.95814928843384,152.50817386472045,154.21035766601562,221700,0.0,0.0
2024-12-31 00:00:00-05:00,154.75154672385207,155.70595408901536,153.66922444990806,154.57444763183594,317100,0.0,0.0
2025-01-02 00:00:00-05:00,155.11557062359762,155.56818214706553,150.98309394445656,151.6816864013672,239400,0.0,0.0
2025-01-03 00:00:00-05:00,151.56361721810913,153.2166170273575,150.41242816102755,153.00015258789062,250700,0.0,0.0
2025-01-06 00:00:00-05:00,151.52426364018712,152.15397426516537,149.00542114027417,150.4616241455078,369000,0.0,0.0
2025-01-07 00:00:00-05:00,153.4134004022987,153.55114913672944,150.14678112287606,150.9634246826172,361200,0.0,0.0
2025-01-08 00:00:00-05:00,150.43210592610473,151.78007669861915,149.64496390044135,151.67184448242188,228600,0.0,0.0
2025-01-10 00:00:00-05:00,150.26486351548883,151.8194651236603,150.1271147660806,150.98312377929688,350800,0.0,0.0
2025-01-13 00:00:00-05:00,150.4714422793405,152.21299140948685,150.4714422793405,151.416015625,349300,0.0,0.0
2025-01-14 00:00:00-05:00,152.32123242972682,152.9509430254435,151.01261204838892,152.12445068359375,196900,0.0,0.0
2025-01-15 00:00:00-05:00,153.6101837863161,154.39732585429968,151.69153531737786,153.05918884277344,206100,0.0,0.0
2025-01-16 00:00:00-05:00,153.38387849846134,154.64329974427918,152.81320090059305,153.89552307128906,346300,0.0,0.0
2025-01-17 00:00:00-05:00,154.44651568260747,155.41075677533345,153.17724560925222,153.58065795898438,231900,0.0,0.0
2025-01-21 00:00:00-05:00,154.20054018392875,157.68362385364128,154.20054018392875,157.2605438232422,270900,0.0,0.0
2025-01-22 00:00:00-05:00,156.77840494744063,158.165741022476,155.7944812085761,156.51275634765625,280000,0.0,0.0
2025-01-23 00:00:00-05:00,155.9125691247179,157.24085722252315,155.19429395404214,157.0539093017578,149800,0.0,0.0
2025-01-24 00:00:00-05:00,157.08343034805782,157.89025507917765,154.69250269490755,155.75514221191406,329600,0.0,0.0
2025-01-27 00:00:00-05:00,155.70595177968644,156.3651789682253,154.1316675888415,155.91258239746094,317000,0.0,0.0
2025-01-28 00:00:00-05:00,155.0368884561647,157.77219556170596,155.0368884561647,155.8732147216797,204300,0.0,0.0
2025-01-29 00:00:00-05:00,156.22742529455388,156.2667906554997,154.10214620806633,154.5842742919922,265800,0.0,0.0
2025-01-30 00:00:00-05:00,155.28286139023555,156.1290214456585,154.06279047284826,155.58787536621094,274200,0.0,0.0
2025-01-31 00:00:00-05:00,155.3615542633782,156.82760605708947,154.2398817878796,154.6236114501953,834100,0.0,0.0
2025-02-03 00:00:00-05:00,152.09494007825938,154.23005288435436,151.66201121186492,153.47242736816406,364600,0.0,0.0
2025-02-04 00:00:00-05:00,153.58064664760494,155.9125560245267,153.58064664760494,155.16476440429688,302400,0.0,0.0
2025-02-05 00:00:00-05:00,156.18111830402617,157.54282355753207,155.6877485810399,156.22059631347656,262600,0.45,0.0
2025-02-06 00:00:00-05:00,157.72041195999537,157.72041195999537,153.3096859205588,154.3753662109375,446600,0.0,0.0
2025-02-07 00:00:00-05:00,155.52986104781684,155.80614687821054,140.1564592271462,141.28134155273438,1221500,0.0,0.0
2025-02-10 00:00:00-05:00,142.34702053857654,142.6825233777481,139.0315755496425,141.38002014160156,621900,0.0,0.0
2025-02-11 00:00:00-05:00,140.38342851707733,141.1728231038295,138.40007254760076,140.4031524658203,377300,0.0,0.0
2025-02-12 00:00:00-05:00,139.10065308864253,141.58724056860353,138.07443569087212,139.8209686279297,423500,0.0,0.0
2025-02-13 00:00:00-05:00,140.8570462749457,141.87338663024207,139.5841591015714,140.8767852783203,665900,0.0,0.0
2025-02-14 00:00:00-05:00,141.78459078054618,143.38310383541634,140.8274523311255,142.8699951171875,512800,0.0,0.0
2025-02-18 00:00:00-05:00,142.870005422231,145.3368541695041,141.99180787045978,144.9520263671875,489600,0.0,0.0
2025-02-19 00:00:00-05:00,144.20210468941022,145.53420898859972,143.6791339779238,145.0901641845703,331000,0.0,0.0
2025-02-20 00:00:00-05:00,145.0211024557617,145.46513221009104,143.9850229913602,144.7349395751953,283100,0.0,0.0
2025-02-21 00:00:00-05:00,145.08031252658017,145.43553936119346,143.2745773720002,144.3994598388672,451900,0.0,0.0
2025-02-24 00:00:00-05:00,144.24155654675204,145.33683786996338,142.4456986894968,143.6791229248047,353300,0.0,0.0
2025-02-25 00:00:00-05:00,143.94554685008032,146.3630553412478,143.78766493433147,145.75128173828125,336700,0.0,0.0
2025-02-26 00:00:00-05:00,144.70532706157428,147.2017765403377,144.67572608407497,144.69546508789062,735600,0.0,0.0
2025-02-27 00:00:00-05:00,144.29088709945773,145.22828644575222,143.4324287058387,143.6988525390625,262800,0.0,0.0
2025-02-28 00:00:00-05:00,144.22184344398863,145.00136099447968,142.7121332709692,144.80401611328125,348700,0.0,0.0
2025-03-03 00:00:00-05:00,145.02108393632108,146.86628170864006,143.75805876881054,144.6461181640625,394100,0.0,0.0
2025-03-04 00:00:00-05:00,143.61007113706088,145.98811712663067,143.21538132959623,144.00477600097656,490100,0.0,0.0
2025-03-05 00:00:00-05:00,144.11331177129864,146.8761854743246,144.11331177129864,146.47161865234375,445100,0.0,0.0
2025-03-06 00:00:00-05:00,145.60326942274776,149.4910252271253,145.10989970252623,149.14566040039062,471700,0.0,0.0
2025-03-07 00:00:00-05:00,148.51415596848955,151.3263695517506,147.20179063339774,150.75405883789062,480200,0.0,0.0
2025-03-10 00:00:00-04:00,150.0534734133287,151.95787329966407,148.24773843682507,148.5733642578125,391100,0.0,0.0
2025-03-11 00:00:00-04:00,148.3464026408534,148.56348652047885,145.31712041299642,145.92889404296875,304000,0.0,0.0
2025-03-12 00:00:00-04:00,146.27425230822007,146.27425230822007,143.62978291883215,144.0935516357422,299700,0.0,0.0
2025-03-13 00:00:00-04:00,144.4685375765296,145.24805517702276,141.85366879945948,142.8404083251953,238400,0.0,0.0
2025-03-14 00:00:00-04:00,143.30416473163334,144.94215581645253,142.62331210863928,144.7152099609375,223600,0.0,0.0
2025-03-17 00:00:00-04:00,144.56719705134603,146.0374443096502,143.92582240634974,145.8795623779297,225200,0.0,0.0
2025-03-18 00:00:00-04:00,145.43552774451433,145.57367066602694,143.8468766188945,144.3599853515625,219900,0.0,0.0
2025-03-19 00:00:00-04:00,144.39946262988383,145.5046211680697,143.54100403649673,145.03097534179688,279600,0.0,0.0
2025-03-20 00:00:00-04:00,144.19225753451235,145.46514494925665,141.8240735432787,143.2745819091797,332800,0.0,0.0
2025-03-21 00:00:00-04:00,142.09047886169986,143.53112506388518,140.4722267880329,142.8996124267578,601900,0.0,0.0
2025-03-24 00:00:00-04:00,143.81728593179704,146.2150557531693,142.98842834340545,146.027587890625,463800,0.0,0.0
2025-03-25 00:00:00-04:00,146.52094458781016,147.25112213589688,143.99487897878777,145.25791931152344,325200,0.0,0.0
2025-03-26 00:00:00-04:00,145.10005553784413,146.72816979182832,144.36000086667843,146.59002685546875,630400,0.0,0.0
2025-03-27 00:00:00-04:00,146.31373410398328,147.90238532565513,145.08030971002844,147.3695526123047,312700,0.0,0.0
2025-03-28 00:00:00-04:00,147.3103187509674,148.0109103514683,143.82712986521204,144.9816131591797,239800,0.0,0.0
2025-03-31 00:00:00-04:00,144.6362804064619,147.1129911771974,144.16264965346014,146.41241455078125,372500,0.0,0.0
2025-04-01 00:00:00-04:00,146.90577987752815,148.04052426681275,145.42567064466144,147.12286376953125,240000,0.0,0.0
2025-04-02 00:00:00-04:00,146.03742513786432,149.12592414972164,146.03742513786432,148.53387451171875,247600,0.0,0.0
2025-04-03 00:00:00-04:00,144.81387146268975,148.0602525772194,144.51786168265852,146.69854736328125,352900,0.0,0.0
2025-04-04 00:00:00-04:00,143.2943120074954,145.99798366938302,138.18299354627644,138.32113647460938,531600,0.0,0.0
2025-04-07 00:00:00-04:00,134.5320636470612,140.23541691494006,129.11487327394232,132.86447143554688,629900,0.0,0.0
2025-04-08 00:00:00-04:00,135.55827586465514,137.46267585200042,129.5391589570541,131.88760375976562,473800,0.0,0.0
2025-04-09 00:00:00-04:00,131.41393843781688,142.50489407043418,129.57861771452687,141.84378051757812,491800,0.0,0.0
2025-04-10 00:00:00-04:00,138.1435312694075,141.46883859689996,135.74576148947023,138.89344787597656,309000,0.0,0.0
2025-04-11 00:00:00-04:00,139.00199411611828,142.79108539083197,137.88698867483097,142.19903564453125,203000,0.0,0.0
2025-04-14 00:00:00-04:00,143.8666122599438,144.45864688553394,141.88325636462724,143.8567352294922,249300,0.0,0.0
2025-04-15 00:00:00-04:00,144.1626568560363,144.5968096183829,141.86355185664104,142.0312957763672,250700,0.0,0.0
2025-04-16 00:00:00-04:00,142.14968721036126,143.88635833288447,140.67945501993827,143.0772247314453,307700,0.0,0.0
2025-04-17 00:00:00-04:00,143.4719025184702,143.827129304186,138.84410738694922,141.9227294921875,390600,0.0,0.0
2025-04-21 00:00:00-04:00,141.39978475645773,142.1398394410975,139.22896069280472,140.6893310546875,291600,0.0,0.0
2025-04-22 00:00:00-04:00,142.5838614223611,144.87310434841834,141.68592484068608,144.08370971679688,217800,0.0,0.0
2025-04-23 00:00:00-04:00,145.90915580529472,147.33994003483116,145.26778119349825,146.08677673339844,537000,0.0,0.0
2025-04-24 00:00:00-04:00,145.96836437930722,149.98440129908244,143.53113171013078,149.45156860351562,424500,0.0,0.0
2025-04-25 00:00:00-04:00,148.8496768827358,150.971161031513,145.61317215141295,147.08340454101562,220500,0.0,0.0
2025-04-28 00:00:00-04:00,147.81358476084023,149.02727016821134,146.31373645785578,147.71490478515625,235200,0.0,0.0
2025-04-29 00:00:00-04:00,147.7740980537582,149.9646608882986,147.03404344902023,148.30694580078125,359900,0.0,0.0
2025-04-30 00:00:00-04:00,147.09325788652058,148.0010563789797,145.25792189668275,147.96157836914062,556200,0.0,0.0
2025-05-01 00:00:00-04:00,146.92238394801444,148.98098168406787,145.44772634078012,146.75413513183594,445300,0.45,0.0
2025-05-02 00:00:00-04:00,151.41566994485422,151.4255616037469,146.2691681880173,150.43585205078125,431600,0.0,0.0
2025-05-05 00:00:00-04:00,149.87171511370832,151.64330372673837,149.32738692371552,149.92120361328125,267600,0.0,0.0
2025-05-06 00:00:00-04:00,148.70385505343256,150.47542844556375,147.8823943414243,149.36695861816406,312000,0.0,0.0
2025-05-07 00:00:00-04:00,150.31710120967497,151.57402154787607,149.07005742921967,149.83213806152344,318400,0.0,0.0
2025-05-08 00:00:00-04:00,150.22799397428952,152.97940019758875,149.68366584659606,151.78184509277344,302500,0.0,0.0
2025-05-09 00:00:00-04:00,152.32618875914795,152.71217484991539,151.3661693612808,151.7422637939453,231600,0.0,0.0
2025-05-12 00:00:00-04:00,154.18685794593227,154.97862867713158,152.11836842577424,153.91964721679688,352500,0.0,0.0
2025-05-13 00:00:00-04:00,154.70149791577734,154.70149791577734,151.62350059983459,152.05897521972656,339400,0.0,0.0
2025-05-14 00:00:00-04:00,152.0391875563717,152.0391875563717,149.41646309434137,150.91091918945312,350100,0.0,0.0
2025-05-15 00:00:00-04:00,150.78224836978063,153.88002883566173,150.78224836978063,153.35548400878906,278100,0.0,0.0
2025-05-16 00:00:00-04:00,153.58311686611248,155.5328458388272,152.9991918706902,155.394287109375,278600,0.0,0.0
2025-05-19 00:00:00-04:00,154.75099115410438,156.71061190187558,154.70150265455177,156.4532928466797,185400,0.0,0.0
2025-05-20 00:00:00-04:00,158.61085981265177,158.61085981265177,156.28505124401337,156.89866638183594,388100,0.0,0.0
2025-05-21 00:00:00-04:00,155.24582661759032,156.02769044680633,154.22642708115745,154.8400421142578,319800,0.0,0.0
2025-05-22 00:00:00-04:00,154.75098526112157,155.64171781206997,153.9592146037401,155.03799438476562,278900,0.0,0.0
2025-05-23 00:00:00-04:00,153.52374279798673,154.57283251997325,152.67259196852737,154.33531188964844,260500,0.0,0.0
2025-05-27 00:00:00-04:00,155.414094045831,156.80958817721682,155.07759641325802,156.532470703125,352800,0.0,0.0
2025-05-28 00:00:00-04:00,156.5324623428064,157.20545757200804,155.64171470785442,155.7802734375,364400,0.0,0.0
2025-05-29 00:00:00-04:00,156.20587454930651,157.03722702384349,155.2062732479064,156.7007293701172,232100,0.0,0.0
2025-05-30 00:00:00-04:00,156.61164696065873,157.14608348083826,154.9291286191898,156.76998901367188,335100,0.0,0.0
2025-06-02 00:00:00-04:00,155.9188406286622,157.43311018008114,153.66230399382138,155.2953338623047,349600,0.0,0.0
2025-06-03 00:00:00-04:00,154.57282948083264,155.819873172597,154.39468901159154,154.65200805664062,397800,0.0,0.0
2025-06-04 00:00:00-04:00,154.87964885312024,154.90933893069985,148.7434377226784,148.86221313476562,831900,0.0,0.0
2025-06-05 00:00:00-04:00,150.02016761657572,151.76205089755143,147.51620379314946,150.92080688476562,482400,0.0,0.0
2025-06-06 00:00:00-04:00,152.78146585654446,152.89033451642794,150.6437046015681,151.7323760986328,264700,0.0,0.0
2025-06-09 00:00:00-04:00,151.1385562627151,151.6037058706287,149.8024422920471,150.03997802734375,388400,0.0,0.0
2025-06-10 00:00:00-04:00,150.59421572449554,151.42556816056012,149.3075902295747,150.9604034423828,323500,0.0,0.0
2025-06-11 00:00:00-04:00,151.4255623288697,152.009487343491,150.0399749887904,150.35667419433594,380800,0.0,0.0
2025-06-12 00:00:00-04:00,149.85193948867737,153.02889896064863,149.85193948867737,152.76168823242188,337200,0.0,0.0
2025-06-13 00:00:00-04:00,151.42556949421294,152.13816161762142,149.17892446341756,149.60450744628906,361200,0.0,0.0
2025-06-16 00:00:00-04:00,149.6836773033695,151.32658367380841,149.56490188854355,150.12904357910156,346200,0.0,0.0
2025-06-17 00:00:00-04:00,149.10964935607322,149.7034660446396,147.59539490266283,147.91209411621094,379700,0.0,0.0
2025-06-18 00:00:00-04:00,147.5854820344273,149.17891500072886,147.5854820344273,148.15951538085938,383200,0.0,0.0
2025-06-20 00:00:00-04:00,148.74345017239213,149.21852165696637,147.45683976487135,148.75335693359375,570500,0.0,0.0
2025-06-23 00:00:00-04:00,147.95168891304158,152.35589347493396,147.95168891304158,152.20742797851562,356500,0.0,0.0
2025-06-24 00:00:00-04:00,152.97939928321904,152.97939928321904,151.60368862890812,152.28659057617188,246600,0.0,0.0
2025-06-25 00:00:00-04:00,152.2767059703511,152.93980953052548,151.1979262277585,152.34597778320312,264700,0.0,0.0
2025-06-26 00:00:00-04:00,152.93980831973192,153.9790063184346,151.5443142958103,152.89031982421875,658200,0.0,0.0
2025-06-27 00:00:00-04:00,153.0684708614105,154.50354657824576,152.64288793470405,154.21653747558594,643100,0.0,0.0
2025-06-30 00:00:00-04:00,154.42437370138657,154.8895383794215,153.01898800881426,154.82025146484375,315500,0.0,0.0
2025-07-01 00:00:00-04:00,154.82025066701402,158.1555819691161,154.35510109314475,157.3737030029297,338300,0.0,0.0
2025-07-02 00:00:00-04:00,157.3836168741782,158.87807285808572,157.0174140714642,158.6702423095703,293500,0.0,0.0
2025-07-03 00:00:00-04:00,158.94735300202996,159.69952679136213,158.17538079404545,159.3828125,235100,0.0,0.0
2025-07-07 00:00:00-04:00,159.293743142079,160.6991288387245,158.89786537747443,159.30364990234375,313900,0.0,0.0
2025-07-08 00:00:00-04:00,159.2442745257537,160.90699456855415,158.2050914884953,158.4030303955078,342700,0.0,0.0
2025-07-09 00:00:00-04:00,158.28424260248426,158.36342117945682,156.47308739815062,158.0863037109375,252800,0.0,0.0
2025-07-10 00:00:00-04:00,157.55188026598236,158.7098387344668,156.7007293701172,156.7007293701172,361600,0.0,0.0
2025-07-11 00:00:00-04:00,156.92834315017365,156.92834315017365,155.01821097581862,156.27513122558594,292000,0.0,0.0
2025-07-14 00:00:00-04:00,155.5229529652812,157.30443311701356,155.0775867027903,155.93862915039062,276600,0.0,0.0
2025-07-15 00:00:00-04:00,156.1168011741537,156.37412023917577,152.48456867448147,152.57363891601562,254200,0.0,0.0
2025-07-16 00:00:00-04:00,152.3361030888639,154.0087147650407,151.96991536157202,153.38519287109375,261900,0.0,0.0
2025-07-17 00:00:00-04:00,153.147673919468,154.80048719298856,152.92002983079288,154.4243927001953,397700,0.0,0.0
2025-07-18 00:00:00-04:00,155.23594716196223,155.59224319991026,153.32579989964464,154.77078247070312,243100,0.0,0.0
2025-07-21 00:00:00-04:00,154.81036123899986,155.05778861889246,153.64251125475573,153.850341796875,205900,0.0,0.0
2025-07-22 00:00:00-04:00,154.50355007338754,157.7201059364026,153.6326008840668,157.5320587158203,449900,0.0,0.0
2025-07-23 00:00:00-04:00,158.4228252977522,160.18450720404206,157.502387503022,159.9964599609375,450500,0.0,0.0
2025-07-24 00:00:00-04:00,159.74832575248354,163.04332545328953,158.58711999706412,160.6018524169922,431900,0.45,0.0
2025-07-25 00:00:00-04:00,160.8301248100112,161.86228924605192,159.5696808618312,159.77810668945312,296300,0.0,0.0
2025-07-28 00:00:00-04:00,159.9865211622613,160.76064829360726,156.96941223290332,157.50534057617188,308500,0.0,0.0
2025-07-29 00:00:00-04:00,157.85271506176437,158.39857783036788,156.036489019279,157.62445068359375,388200,0.0,0.0
2025-07-30 00:00:00-04:00,157.604589521812,157.73360061087115,153.75379251207275,155.60971069335938,580700,0.0,0.0
2025-07-31 00:00:00-04:00,154.6073142621548,156.1655028465139,154.01182489938444,155.9570770263672,679700,0.0,0.0
2025-08-01 00:00:00-04:00,155.78836042379552,156.92969738141443,140.02789724626874,140.28594970703125,1012300,0.0,0.0
2025-08-04 00:00:00-04:00,142.04261109792537,142.04261109792537,136.04808589776894,138.08265686035156,839000,0.0,0.0
2025-08-05 00:00:00-04:00,138.2910636449433,140.0080513419761,136.65349067989766,139.16444396972656,540800,0.0,0.0
2025-08-06 00:00:00-04:00,139.2537809781534,139.7003904682946,136.5145629805525,137.49710083007812,515300,0.0,0.0
2025-08-07 00:00:00-04:00,138.74761061171503,140.42489098048776,137.8643109975234,139.4324188232422,564000,0.0,0.0
2025-08-08 00:00:00-04:00,139.63091429693503,140.98067707589914,139.52174175069808,139.69046020507812,428700,0.0,0.0
2025-08-11 00:00:00-04:00,140.26609366892225,140.55390393503043,138.1521230997788,138.81707763671875,349500,0.0,0.0
2025-08-12 00:00:00-04:00,139.16444275983682,140.0278886636534,138.1818899029979,138.4300079345703,286100,0.0,0.0
2025-08-13 00:00:00-04:00,138.63844918654183,140.3752756010035,138.2017589793064,140.36534118652344,729900,0.0,0.0
2025-08-14 00:00:00-04:00,139.13467885374612,139.13467885374612,135.41290813818017,137.29859924316406,875800,0.0,0.0
2025-08-15 00:00:00-04:00,137.31844490006762,137.90399982387856,136.832128103183,137.6757354736328,770500,0.0,0.0
2025-08-18 00:00:00-04:00,137.84446193662134,138.51935090102052,136.31606142653533,136.85198974609375,529500,0.0,0.0
2025-08-19 00:00:00-04:00,137.2291443142154,139.4622069103412,137.2291443142154,138.53919982910156,333100,0.0,0.0
2025-08-20 00:00:00-04:00,138.85678922638783,140.18669834070658,138.21167320961604,140.11721801757812,519200,0.0,0.0
2025-08-21 00:00:00-04:00,139.571379557282,140.8318084309671,139.18431597945528,139.581298828125,270400,0.0,0.0
2025-08-22 00:00:00-04:00,140.19662272353239,142.2510475228651,140.12715754179467,140.36534118652344,356500,0.0,0.0
2025-08-25 00:00:00-04:00,139.90880407770842,140.54398566556975,137.91394045268862,138.50941467285156,245800,0.0,0.0
2025-08-26 00:00:00-04:00,138.0231130894521,139.10490412913347,136.97107985967878,138.65829467773438,442900,0.0,0.0
2025-08-27 00:00:00-04:00,138.0429485121284,139.51181820629935,137.98340260580963,138.39031982421875,729100,0.0,0.0
2025-08-28 00:00:00-04:00,139.11483040361404,139.11483040361404,136.365678091318,137.84446716308594,320800,0.0,0.0
2025-08-29 00:00:00-04:00,138.12235011895848,138.81707760936152,137.30853081417874,138.2216033935547,370700,0.0,0.0
2025-09-02 00:00:00-04:00,136.3855243788287,137.4871690980893,135.1449341609192,135.3831329345703,310600,0.0,0.0
2025-09-03 00:00:00-04:00,135.05562942608722,135.15486756754578,133.42797549570034,134.2021026611328,382300,0.0,0.0
2025-09-04 00:00:00-04:00,135.3235923742518,137.43754789123142,134.02344105361325,137.41770935058594,401800,0.0,0.0
2025-09-05 00:00:00-04:00,137.97349027820903,139.7599432772732,136.59395451802803,137.5764923095703,440800,0.0,0.0
2025-09-08 00:00:00-04:00,137.54672141344943,138.9461108789868,136.6435680581942,137.2589111328125,616100,0.0,0.0
2025-09-09 00:00:00-04:00,137.21919336213278,138.43001059095468,134.08299289225738,136.018310546875,637100,0.0,0.0
2025-09-10 00:00:00-04:00,135.1052581464342,136.42524811392565,133.83489482239776,135.22434997558594,685100,0.0,0.0
2025-09-11 00:00:00-04:00,135.72057605320697,137.23905733793734,134.84719565375582,136.0679473876953,477500,0.0,0.0
2025-09-12 00:00:00-04:00,135.59154130836964,136.0183122109246,134.202086345472,134.21200561523438,261300,0.0,0.0
2025-09-15 00:00:00-04:00,134.94644868156496,135.14494009636334,133.61653954409923,133.8348846435547,298000,0.0,0.0
2025-09-16 00:00:00-04:00,133.77531755009446,134.40057986520893,133.0905244715447,134.19216918945312,474800,0.0,0.0
2025-09-17 00:00:00-04:00,134.4005909331664,136.03817924000734,133.1798543000121,133.63638305664062,377400,0.0,0.0
2025-09-18 00:00:00-04:00,133.88450115501576,134.4899098363819,133.06076250993905,133.48751831054688,254800,0.0,0.0
2025-09-19 00:00:00-04:00,133.64630834951197,134.08299853486403,132.33623779345575,133.42796325683594,877200,0.0,0.0
2025-09-22 00:00:00-04:00,133.11035640508263,133.92419081572487,131.67127485428063,131.7209014892578,402100,0.0,0.0
2025-09-23 00:00:00-04:00,132.00872186790292,132.9416481589146,130.97655744324732,131.02618408203125,319700,0.0,0.0
2025-09-24 00:00:00-04:00,131.00632212823788,132.30645820511924,130.35128688305517,130.5100860595703,353300,0.0,0.0
2025-09-25 00:00:00-04:00,130.51009416312277,131.52242004635977,129.28935759870177,129.83522033691406,388700,0.0,0.0
2025-09-26 00:00:00-04:00,130.34136367550963,131.4330739072408,129.97415384184546,131.29412841796875,274400,0.0,0.0
2025-09-29 00:00:00-04:00,131.40330307035197,131.68119405336847,130.3711387254224,131.2742919921875,540600,0.0,0.0
2025-09-30 00:00:00-04:00,130.71852133224422,132.75307724589,130.71852133224422,132.65383911132812,310400,0.0,0.0
2025-10-01 00:00:00-04:00,132.32631845773457,133.34856359842706,131.3139925870956,133.13021850585938,310100,0.0,0.0
2025-10-02 00:00:00-04:00,132.65384203252245,133.37834252086736,131.95911449959414,132.1774444580078,398500,0.0,0.0
2025-10-03 00:00:00-04:00,131.47279367640735,132.5744384252611,131.43308630777042,132.21714782714844,402000,0.0,0.0
2025-10-06 00:00:00-04:00,131.8896443867501,132.19730837916092,130.42078961140544,130.8872528076172,447100,0.0,0.0
2025-10-07 00:00:00-04:00,131.11551092866284,131.51249377525733,128.8328217009324,129.60694885253906,438800,0.0,0.0
2025-10-08 00:00:00-04:00,130.1924917880393,131.01624550512267,129.27941921033712,130.6192626953125,361300,0.0,0.0
2025-10-09 00:00:00-04:00,130.7085916497168,131.8400094033637,129.2198832820801,129.62680053710938,554200,0.0,0.0
2025-10-10 00:00:00-04:00,129.95430086831624,131.01623815413373,128.91220212112975,129.94436645507812,426000,0.0,0.0
2025-10-13 00:00:00-04:00,130.00393866771898,131.35370146275474,129.1801849261088,129.23973083496094,311400,0.0,0.0
2025-10-14 00:00:00-04:00,129.0610901520414,130.07341612989566,128.06861786032061,128.82290649414062,337400,0.0,0.0
2025-10-15 00:00:00-04:00,128.82289614269973,129.4084511132212,126.89749762844694,127.13569641113281,438300,0.0,0.0
2025-10-16 00:00:00-04:00,127.47313242398477,128.52515053818064,126.88756988565697,128.18771362304688,352700,0.0,0.0
2025-10-17 00:00:00-04:00,128.18771054309016,129.120636816335,127.88004658998253,128.36634826660156,339700,0.0,0.0
2025-10-20 00:00:00-04:00,128.63431403654306,129.1106964210944,127.05628697626973,129.02137756347656,240500,0.0,0.0
2025-10-21 00:00:00-04:00,129.6267893910326,130.7780607308871,128.14800042118895,129.58709716796875,311600,0.0,0.0
2025-10-22 00:00:00-04:00,129.66648758385847,131.11550366713516,129.001533023481,129.0809326171875,357500,0.0,0.0
2025-10-23 00:00:00-04:00,129.24032557401767,131.02342489019046,129.16063186156003,130.266357421875,378600,0.48,0.0
2025-10-24 00:00:00-04:00,130.2464294932207,130.38588968926612,128.04493439848073,128.38363647460938,489300,0.0,0.0
2025-10-27 00:00:00-04:00,128.64262593461441,129.39969337705932,127.95528098817398,128.2840118408203,521700,0.0,0.0
2025-10-28 00:00:00-04:00,128.25413419657656,128.61274830602028,126.9790651852259,127.60664367675781,413500,0.0,0.0
2025-10-29 00:00:00-04:00,126.78979272467178,127.00894663290282,122.94465851664737,123.83123016357422,651100,0.0,0.0
2025-10-30 00:00:00-04:00,123.5622752273834,125.03657092289914,122.56612661149028,123.88104248046875,702600,0.0,0.0
2025-10-31 00:00:00-04:00,114.84597369201094,117.64514884272785,102.8324239362538,115.56320190429688,2758200,0.0,0.0
2025-11-03 00:00:00-05:00,115.6428887968913,115.6428887968913,107.87293417806934,112.68433380126953,1661000,0.0,0.0
2025-11-04 00:00:00-05:00,113.919556689229,115.55323981656579,112.09660289225816,113.74024963378906,1029100,0.0,0.0
2025-11-05 00:00:00-05:00,113.88967105472761,115.59308424562619,112.33567407354856,115.12489318847656,896900,0.0,0.0
2025-11-06 00:00:00-05:00,114.57700684246853,116.50953752835609,113.36171195341622,115.7026596069336,880300,0.0,0.0
2025-11-07 00:00:00-05:00,115.78235588701804,116.46969325755225,114.24828612088064,115.77239227294922,697200,0.0,0.0
2025-11-10 00:00:00-05:00,115.5432729820834,116.32026766733067,113.56093941331017,115.93177032470703,514000,0.0,0.0
2025-11-11 00:00:00-05:00,116.50953904136568,119.04972100477185,116.50953904136568,117.81449127197266,484800,0.0,0.0
2025-11-12 00:00:00-05:00,117.8842173531296,119.20909676654827,117.45588076684714,117.70491790771484,547500,0.0,0.0
2025-11-13 00:00:00-05:00,117.8443842573739,121.41059052496826,117.8443842573739,119.737060546875,679400,0.0,0.0
2025-11-14 00:00:00-05:00,119.30871137736264,120.22517384155344,117.93402908109216,118.15318298339844,521200,0.0,0.0
2025-11-17 00:00:00-05:00,118.03364629792767,119.02979490477999,117.11719140362612,118.88037109375,820200,0.0,0.0
2025-11-18 00:00:00-05:00,119.19914484456227,119.64740867350712,117.60530100829023,118.8504867553711,817400,0.0,0.0
2025-11-19 00:00:00-05:00,119.04971870763417,119.04971870763417,117.25664822688579,117.5455322265625,598900,0.0,0.0
2025-11-20 00:00:00-05:00,117.54553065339863,119.14933045082296,116.91795979354102,118.12329864501953,507400,0.0,0.0
2025-11-21 00:00:00-05:00,117.67502837581664,121.76919962522595,117.67502837581664,121.05197143554688,509100,0.0,0.0
2025-11-24 00:00:00-05:00,120.38455190510423,121.92858521245563,119.9761349476823,121.00216674804688,740000,0.0,0.0
2025-11-25 00:00:00-05:00,121.93855251914646,123.60211884002427,121.93855251914646,122.96458435058594,543600,0.0,0.0
2025-11-26 00:00:00-05:00,122.54619448390098,124.04041734800323,122.54619448390098,123.3331527709961,538000,0.0,0.0
2025-11-28 00:00:00-05:00,123.1538497021488,125.5944183523718,123.1538497021488,124.26953887939453,315700,0.0,0.0
2025-12-01 00:00:00-05:00,124.3990349156279,124.47872862794028,122.5561615184654,122.8051986694336,536800,0.0,0.0
2025-12-02 00:00:00-05:00,123.29330872615562,123.38296605205076,120.33475377180815,121.13166809082031,325400,0.0,0.0
2025-12-03 00:00:00-05:00,120.98224589440565,123.78142866229517,120.94240663793282,121.58989715576172,543100,0.0,0.0
2025-12-04 00:00:00-05:00,121.72935588012562,123.60212011213446,121.46039910213004,121.550048828125,708000,0.0,0.0
2025-12-05 00:00:00-05:00,121.52016157322772,123.0343116512343,120.15544290029952,121.44047546386719,537000,0.0,0.0
2025-12-08 00:00:00-05:00,120.45428397361297,121.62973959717331,118.84052814466453,119.60755920410156,496600,0.0,0.0
2025-12-09 00:00:00-05:00,119.13936863432369,119.38840577929511,114.91570078361141,115.2743148803711,640300,0.0,0.0
2025-12-10 00:00:00-05:00,115.72257853337636,117.34630558024035,114.68658309979747,116.7187271118164,734700,0.0,0.0
2025-12-11 00:00:00-05:00,117.50568574674746,118.21295032752096,116.70877144165544,117.55549621582031,389700,0.0,0.0
2025-12-12 00:00:00-05:00,118.06352393728298,121.17151017917278,117.196879554456,121.00216674804688,656400,0.0,0.0
2025-12-15 00:00:00-05:00,121.01213143800062,121.98835277906521,120.01598286956141,121.85885620117188,588600,0.0,0.0
2025-12-16 00:00:00-05:00,122.19754617074564,123.37300181536564,119.0596765804455,122.35693359375,644800,0.0,0.0
2025-12-17 00:00:00-05:00,121.63970423659477,124.12011208349313,119.6175238264721,123.15384674072266,567300,0.0,0.0
2025-12-18 00:00:00-05:00,123.19369468787343,123.64196611478646,121.56001160314787,122.14774322509766,457100,0.0,0.0
2025-12-19 00:00:00-05:00,122.86496444856809,123.85115703275031,120.79298114041151,120.92247772216797,1300400,0.0,0.0
2025-12-22 00:00:00-05:00,120.92247390417073,123.22357466125312,120.60370666682594,122.26727294921875,527800,0.0,0.0
2025-12-23 00:00:00-05:00,122.39677984292547,122.55615966512936,120.85274649026779,121.71939849853516,311700,0.0,0.0
2025-12-24 00:00:00-05:00,122.0580830371269,122.69561751377475,121.29105198241356,122.27723693847656,198000,0.0,0.0
2025-12-26 00:00:00-05:00,121.89870630347777,123.00443185190434,121.25120819673985,122.77531433105469,306000,0.0,0.0
2025-12-29 00:00:00-05:00,122.81515971406309,123.83122792475147,121.84889437252,122.73546600341797,400200,0.0,0.0
2025-12-30 00:00:00-05:00,122.32704703122806,123.82126988128373,121.94850571187395,122.26727294921875,289800,0.0,0.0
2025-12-31 00:00:00-05:00,121.05197234327426,122.85500644474074,120.8826289083331,121.49028015136719,314300,0.0,0.0
2026-01-02 00:00:00-05:00,121.27112467453803,122.52627399961013,120.31482296020086,122.06804656982422,295100,0.0,0.0
2026-01-05 00:00:00-05:00,121.29105352059696,124.10019221895458,121.29105352059696,122.52627563476562,435700,0.0,0.0
2026-01-06 00:00:00-05:00,121.74928292899573,122.37685381006916,119.64740877808522,120.09567260742188,777200,0.0,0.0
2026-01-07 00:00:00-05:00,120.20524516718837,121.48031411070211,117.15703299910017,119.97613525390625,478500,0.0,0.0
2026-01-08 00:00:00-05:00,119.45813846313783,122.89485569818288,119.0596775025515,121.96843719482422,330000,0.0,0.0
2026-01-09 00:00:00-05:00,121.60982144195128,124.48869025314991,120.99220658141333,123.37300109863281,429100,0.0,0.0
2026-01-12 00:00:00-05:00,123.5224261097117,124.81742232667263,122.50635788410425,124.6480712890625,477300,0.0,0.0
2026-01-13 00:00:00-05:00,124.56838640898677,124.95688375791437,122.06805127613653,123.02435302734375,351900,0.0,0.0
2026-01-14 00:00:00-05:00,123.63200512032016,126.67026143373172,123.63200512032016,126.3614501953125,611700,0.0,0.0
2026-01-15 00:00:00-05:00,126.65033136548587,126.73002507684,124.04041931871804,124.6281509399414,381000,0.0,0.0
2026-01-16 00:00:00-05:00,123.52242596027686,124.71780123601722,122.76535089896896,124.22969055175781,363400,0.0,0.0
2026-01-20 00:00:00-05:00,124.41895904968523,125.0465299185149,122.9645830361994,123.3431167602539,275100,0.0,0.0
2026-01-21 00:00:00-05:00,123.8312253817379,125.13618516671866,123.4228084230874,124.52853393554688,421000,0.0,0.0
2026-01-22 00:00:00-05:00,124.56838384921164,125.9231465355853,123.58219127603556,123.99061584472656,369700,0.0,0.0
2026-01-23 00:00:00-05:00,123.8611143925338,125.79364512595791,123.39293093032236,125.51472473144531,429500,0.0,0.0
2026-01-26 00:00:00-05:00,125.93310290002078,126.50090729221316,124.61818706546947,125.86337280273438,315400,0.0,0.0
2026-01-27 00:00:00-05:00,124.46876518523668,125.8135718823247,123.69177048914806,124.25957489013672,303100,0.0,0.0
2026-01-28 00:00:00-05:00,123.72165370927159,124.58830573168342,122.77531557446258,123.22357940673828,347800,0.0,0.0
2026-01-29 00:00:00-05:00,123.81130890933785,124.7974938834136,122.1178517498024,123.37300109863281,386000,0.0,0.0
2026-01-30 00:00:00-05:00,122.43662879089985,124.52853934314632,122.18759163944166,124.46876525878906,512700,0.0,0.0
2026-02-02 00:00:00-05:00,123.72164944172175,125.42507018563877,123.72164944172175,124.34922790527344,489100,0.0,0.0
2026-02-03 00:00:00-05:00,123.43277330805162,127.43728722684571,123.21361940602614,124.14999389648438,658700,0.0,0.0
2026-02-04 00:00:00-05:00,125.70999908447266,130.4199981689453,124.69999694824219,129.22999572753906,589400,0.48,0.0
2026-02-05 00:00:00-05:00,127.66999816894531,129.0800018310547,121.95999908447266,123.9800033569336,2144200,0.0,0.0
2026-02-06 00:00:00-05:00,127.52999877929688,135.99000549316406,127.52999877929688,134.30999755859375,1045700,0.0,0.0
2026-02-09 00:00:00-05:00,133.5800018310547,139.57000732421875,133.25,138.47000122070312,1043400,0.0,0.0
