Date,Open,High,Low,Close,Volume,Dividends,Stock Splits
2024-03-18 00:00:00-04:00,137.45710735515453,137.81799970324496,135.5063926102615,135.82826232910156,299700,0.0,0.0
2024-03-19 00:00:00-04:00,135.4576479614325,136.8621650763059,135.4576479614325,136.07211303710938,253000,0.0,0.0
2024-03-20 00:00:00-04:00,136.18917973371362,136.61833943779183,135.71124917548556,136.5207977294922,220000,0.0,0.0
2024-03-21 00:00:00-04:00,136.85239310810522,138.11061247646305,135.86728750129473,137.6619415283203,255800,0.0,0.0
2024-03-22 00:00:00-04:00,138.51050894714137,138.93966861515497,137.57417411036076,138.10086059570312,276000,0.0,0.0
2024-03-25 00:00:00-04:00,137.72046468780368,140.5002392871128,137.69120515583396,139.43710327148438,316300,0.0,0.0
2024-03-26 00:00:00-04:00,139.31032606823987,140.75385113118108,139.10549442635582,139.67120361328125,314200,0.0,0.0
2024-03-27 00:00:00-04:00,140.12959043860377,141.57311516745534,140.12959043860377,141.09519958496094,218200,0.0,0.0
2024-03-28 00:00:00-04:00,141.25129809201187,141.76823644152643,140.11011657637658,140.34420776367188,247800,0.0,0.0
2024-04-01 00:00:00-04:00,140.2466668134247,140.2466668134247,138.61782136022939,138.78363037109375,204400,0.0,0.0
2024-04-02 00:00:00-04:00,138.34469442065378,138.34469442065378,136.9304291224682,137.16452026367188,202600,0.0,0.0
2024-04-03 00:00:00-04:00,137.20353934586018,137.7107294189767,136.42325036016734,137.4083709716797,258700,0.0,0.0
2024-04-04 00:00:00-04:00,138.33495787722,139.232285003393,137.49614982059262,138.25692749023438,403600,0.0,0.0
2024-04-05 00:00:00-04:00,137.89604531062415,139.242028512989,137.4766338551034,138.23741149902344,288300,0.0,0.0
2024-04-08 00:00:00-04:00,138.1789190774074,138.87142957029857,136.9304624526482,137.04750061035156,312500,0.0,0.0
2024-04-09 00:00:00-04:00,136.95967637769692,137.6229271102668,135.92579997491075,136.85238647460938,242600,0.0,0.0
2024-04-10 00:00:00-04:00,135.55518013032452,136.76462877873269,135.03824184996014,135.96482849121094,200700,0.0,0.0
2024-04-11 00:00:00-04:00,135.82826338990424,136.58904095573232,135.03822629329608,135.70147705078125,265300,0.0,0.0
2024-04-12 00:00:00-04:00,134.76515935277737,135.52593709888683,132.60962736639266,133.81906127929688,299200,0.0,0.0
2024-04-15 00:00:00-04:00,135.19430322171078,136.36472924127222,134.43352556485712,134.79440307617188,319600,0.0,0.0
2024-04-16 00:00:00-04:00,134.39450046903713,135.95507838838475,133.9751038968422,135.17478942871094,281700,0.0,0.0
2024-04-17 00:00:00-04:00,135.45766906073504,136.04287469456995,134.940730720265,134.98948669433594,565400,0.0,0.0
2024-04-18 00:00:00-04:00,134.97971775931973,136.00384606481703,134.81390877770949,135.68197631835938,246600,0.0,0.0
2024-04-19 00:00:00-04:00,135.63321212465888,136.47202017340777,135.35036499692032,135.90631103515625,276600,0.0,0.0
2024-04-22 00:00:00-04:00,136.11116828930187,137.6717316598892,135.81855800644888,136.86219787597656,298800,0.0,0.0
2024-04-23 00:00:00-04:00,136.32570914394802,137.68145534635985,136.08186979183958,136.6963348388672,417200,0.0,0.0
2024-04-24 00:00:00-04:00,136.90178896616595,137.83109432209855,136.59854336936667,136.96047973632812,559200,0.41,0.0
2024-04-25 00:00:00-04:00,136.79417905028185,138.17347180247913,135.8942191136086,137.12677001953125,694400,0.0,0.0
2024-04-26 00:00:00-04:00,138.907142184169,145.27534452627617,138.80931428247655,140.2081756591797,489500,0.0,0.0
2024-04-29 00:00:00-04:00,141.7439515679202,144.79600552411128,141.2254966026468,143.1917266845703,676700,0.0,0.0
2024-04-30 00:00:00-04:00,142.56568461683193,142.9178441580888,140.92226844881924,141.2353057861328,585100,0.0,0.0
2024-05-01 00:00:00-04:00,141.83202655109724,144.00367466578803,141.43095304197814,142.21353149414062,359600,0.0,0.0
2024-05-02 00:00:00-04:00,142.58521109748332,143.53408482162635,142.12544692490107,142.74172973632812,356500,0.0,0.0
2024-05-03 00:00:00-04:00,143.905819193012,143.92538775533887,141.68525755175847,143.6123504638672,303300,0.0,0.0
2024-05-06 00:00:00-04:00,144.54164300372568,145.8328993282561,143.95472052329777,145.79376220703125,260200,0.0,0.0
2024-05-07 00:00:00-04:00,145.0894683068579,147.10459732337995,145.0894683068579,146.45896911621094,392900,0.0,0.0
2024-05-08 00:00:00-04:00,146.45898941866878,147.5839356018341,146.22421142176023,147.50567626953125,223500,0.0,0.0
2024-05-09 00:00:00-04:00,147.71109528278453,148.42519110044378,145.39272061672744,145.83291625976562,299100,0.0,0.0
2024-05-10 00:00:00-04:00,145.70574027513976,145.75465421821906,144.86447120407098,145.25576782226562,186300,0.0,0.0
2024-05-13 00:00:00-04:00,145.29488969836768,146.22419490905267,143.6612655029354,144.64926147460938,167500,0.0,0.0
2024-05-14 00:00:00-04:00,145.06991603597936,145.07969285484432,144.257992276957,144.67861938476562,137600,0.0,0.0
2024-05-15 00:00:00-04:00,144.73730981078913,145.10902293218365,143.57322665167914,144.07211303710938,211100,0.0,0.0
2024-05-16 00:00:00-04:00,144.16018155162544,144.67863661559434,143.2406529698111,144.32647705078125,235500,0.0,0.0
2024-05-17 00:00:00-04:00,144.629715759089,144.94273814365255,143.9253967357703,144.45362854003906,169500,0.0,0.0
2024-05-20 00:00:00-04:00,144.37536485042523,145.1775117408084,143.837341317417,144.94273376464844,163400,0.0,0.0
2024-05-21 00:00:00-04:00,144.71777058155686,145.44164333540036,143.88627817753166,145.35360717773438,280400,0.0,0.0
2024-05-22 00:00:00-04:00,144.84492077803603,145.58836197942233,144.25798330095628,145.54922485351562,283300,0.0,0.0
2024-05-23 00:00:00-04:00,145.4220766972729,145.70575371098772,144.34602955606266,144.50254821777344,171700,0.0,0.0
2024-05-24 00:00:00-04:00,145.24597630987142,145.58835898553383,144.1503756300553,144.86447143554688,162300,0.0,0.0
2024-05-28 00:00:00-04:00,144.40470973047522,144.56122838070533,142.64392715792664,143.51454162597656,318400,0.0,0.0
2024-05-29 00:00:00-04:00,142.4776120748706,143.50474515935326,141.36244284994527,141.6852569580078,229700,0.0,0.0
2024-05-30 00:00:00-04:00,141.9689740793988,143.77867085777473,141.8418007918825,142.95697021484375,328100,0.0,0.0
2024-05-31 00:00:00-04:00,142.9080487725845,144.61015566638255,142.74175328878766,144.47320556640625,358900,0.0,0.0
2024-06-03 00:00:00-04:00,145.26555910339786,145.26555910339786,143.09391116713076,144.93296813964844,266200,0.0,0.0
2024-06-04 00:00:00-04:00,144.4340488422392,145.15793637330214,143.5047436523007,144.96229553222656,287900,0.0,0.0
2024-06-05 00:00:00-04:00,144.5025402991468,144.97208133210754,143.87648061305237,144.69818115234375,229200,0.0,0.0
2024-06-06 00:00:00-04:00,144.7862212470873,144.7862212470873,142.2330684881502,142.7808837890625,197600,0.0,0.0
2024-06-07 00:00:00-04:00,142.595015935118,143.14281629493723,142.281978628684,142.3798065185547,179100,0.0,0.0
2024-06-10 00:00:00-04:00,141.67550401275804,142.6341547541383,140.85380337728924,142.4189453125,125800,0.0,0.0
2024-06-11 00:00:00-04:00,141.7537411225742,142.56566481118944,141.20594078481926,142.3308868408203,147700,0.0,0.0
2024-06-12 00:00:00-04:00,143.05477521985793,143.1232427992556,140.93204143549355,142.65370178222656,221300,0.0,0.0
2024-06-13 00:00:00-04:00,142.7123925435502,143.3384522084022,141.86134665147762,142.65370178222656,232400,0.0,0.0
2024-06-14 00:00:00-04:00,141.92983524372966,142.21352720071462,140.55054244265887,141.5972442626953,141500,0.0,0.0
2024-06-17 00:00:00-04:00,141.71460051017326,143.48517474628758,141.42114671248308,143.14280700683594,303800,0.0,0.0
2024-06-18 00:00:00-04:00,143.28954725443802,144.47319907900086,143.27977043575066,143.49497985839844,219900,0.0,0.0
2024-06-20 00:00:00-04:00,143.46563231018484,144.3166782428008,142.49718992288908,142.63414001464844,199900,0.0,0.0
2024-06-21 00:00:00-04:00,142.6928388933288,143.93518153479198,142.14503849513946,143.65150451660156,444100,0.0,0.0
2024-06-24 00:00:00-04:00,144.01343211075954,145.00142813124864,143.47540856437814,143.52432250976562,182900,0.0,0.0
2024-06-25 00:00:00-04:00,143.59278987668708,143.60258162161415,141.35267447513021,141.704833984375,194500,0.0,0.0
2024-06-26 00:00:00-04:00,141.10812684702637,141.6363586745215,139.84623058185173,140.57989501953125,192400,0.0,0.0
2024-06-27 00:00:00-04:00,140.7363739013672,140.74616564506272,139.17123233325364,140.7363739013672,377300,0.0,0.0
2024-06-28 00:00:00-04:00,140.64836976622286,141.17661654705415,137.03873816082947,137.74305725097656,435100,0.0,0.0
2024-07-01 00:00:00-04:00,138.30064553329024,138.39845850468294,135.3757645347683,135.52249145507812,306400,0.0,0.0
2024-07-02 00:00:00-04:00,135.463800767183,137.4398078783609,134.75948169639565,137.34197998046875,259400,0.0,0.0
2024-07-03 00:00:00-04:00,137.81152831067402,138.32019155737456,137.50828274109926,138.1441192626953,143300,0.0,0.0
2024-07-05 00:00:00-04:00,137.91915154947608,138.35934727174964,136.68658561537885,137.8311004638672,207000,0.0,0.0
2024-07-08 00:00:00-04:00,138.56474550287118,139.3962378042094,138.41801859154825,138.42779541015625,249300,0.0,0.0
2024-07-09 00:00:00-04:00,137.79195401961266,138.19302746496587,136.7061301349004,136.98980712890625,238400,0.0,0.0
2024-07-10 00:00:00-04:00,137.6843688445514,138.54520661982787,137.5082965322133,138.2126007080078,142000,0.0,0.0
2024-07-11 00:00:00-04:00,138.12454847030526,140.1788147670624,137.6843528142689,138.9951629638672,244500,0.0,0.0
2024-07-12 00:00:00-04:00,140.28642803925482,142.32112589674372,140.28642803925482,141.4407196044922,263900,0.0,0.0
2024-07-15 00:00:00-04:00,141.60700253343475,142.51675412879416,140.02229224489653,140.30596923828125,319900,0.0,0.0
2024-07-16 00:00:00-04:00,140.71683443818233,142.1352492580944,140.71683443818233,141.41136169433594,178800,0.0,0.0
2024-07-17 00:00:00-04:00,141.1961558207013,142.59501703919386,141.1961558207013,141.704833984375,242300,0.0,0.0
2024-07-18 00:00:00-04:00,141.46029340871593,144.04279176071282,141.45051658924618,143.0939178466797,434200,0.0,0.0
2024-07-19 00:00:00-04:00,143.39715857359943,143.39715857359943,141.50920255553004,142.76132202148438,251200,0.0,0.0
2024-07-22 00:00:00-04:00,142.81025530810558,144.34605200143616,142.0863675799617,143.98411560058594,235700,0.0,0.0
2024-07-23 00:00:00-04:00,144.64927385495375,145.27533356981945,142.49719451800544,142.859130859375,234500,0.0,0.0
2024-07-24 00:00:00-04:00,142.88848966890302,143.43629004785507,140.7657408108026,141.00051879882812,250600,0.0,0.0
2024-07-25 00:00:00-04:00,140.15662064812102,141.3537868323138,138.57675478033786,138.84170532226562,558100,0.45,0.0
2024-07-26 00:00:00-04:00,140.45100532827604,148.45826121883343,139.68560597824617,143.91493225097656,562800,0.0,0.0
2024-07-29 00:00:00-04:00,143.83640338208556,145.57327775335992,142.45279134101645,145.0335693359375,390900,0.0,0.0
2024-07-30 00:00:00-04:00,144.6214530331883,145.13170927031027,142.68832486399208,143.02195739746094,411000,0.0,0.0
2024-07-31 00:00:00-04:00,143.75791610697183,146.0639364501805,142.6883215533924,144.2289276123047,280600,0.0,0.0
2024-08-01 00:00:00-04:00,144.13079821317172,146.7409986425237,142.7079264139435,144.27798461914062,335300,0.0,0.0
2024-08-02 00:00:00-04:00,143.83643005460556,144.24856702073956,141.0593980219817,142.9630889892578,213500,0.0,0.0
2024-08-05 00:00:00-04:00,140.7453874925113,140.7453874925113,136.86932335346282,138.04685974121094,448500,0.0,0.0
2024-08-06 00:00:00-04:00,138.68469153261674,143.3555919877559,138.4688081318192,142.21730041503906,476000,0.0,0.0
2024-08-07 00:00:00-04:00,143.2770808419969,144.50368421019382,140.7846293860225,140.91220092773438,353600,0.0,0.0
2024-08-08 00:00:00-04:00,141.7560931028949,143.42427055319075,141.7560931028949,142.8354949951172,268600,0.0,0.0
2024-08-09 00:00:00-04:00,142.6883251235522,142.6883251235522,140.7846342348352,141.25564575195312,263200,0.0,0.0
2024-08-12 00:00:00-04:00,141.27528177951416,141.48134277649905,140.09774544861156,140.60800170898438,221100,0.0,0.0
2024-08-13 00:00:00-04:00,140.8238667137916,142.58037102983502,140.4215522097615,141.6677703857422,212000,0.0,0.0
2024-08-14 00:00:00-04:00,141.43229456951534,142.09955968550838,140.80427417726833,141.2065887451172,115700,0.0,0.0
2024-08-15 00:00:00-04:00,142.2859890142112,144.58218689853118,142.2859890142112,144.25836181640625,277500,0.0,0.0
2024-08-16 00:00:00-04:00,143.37520241076297,144.09153452189628,142.88456110691027,143.97378540039062,250600,0.0,0.0
2024-08-19 00:00:00-04:00,143.5812884602749,144.96488565497833,143.18876640563337,144.2191162109375,191200,0.0,0.0
2024-08-20 00:00:00-04:00,144.2289295518495,145.53403736223893,144.2289295518495,145.33778381347656,387200,0.0,0.0
2024-08-21 00:00:00-04:00,145.39666627862889,146.77047114096155,144.6999638967002,146.5349578857422,267300,0.0,0.0
2024-08-22 00:00:00-04:00,146.77045494485301,147.58490637792332,145.88729156512758,146.20130920410156,200400,0.0,0.0
2024-08-23 00:00:00-04:00,146.85879187492884,147.7125031452807,146.6429084545568,147.6241912841797,221400,0.0,0.0
2024-08-26 00:00:00-04:00,147.85968253592975,149.81244066419112,147.32979642138147,147.34942626953125,235500,0.0,0.0
2024-08-27 00:00:00-04:00,147.2022204683962,148.7035818834596,147.03540419707656,148.3699493408203,208300,0.0,0.0
2024-08-28 00:00:00-04:00,148.10499968154102,149.12554213624935,148.10499968154102,148.70358276367188,249000,0.0,0.0
2024-08-29 00:00:00-04:00,149.69468380657958,150.04794618913405,148.379768538866,149.4297332763672,187100,0.0,0.0
2024-08-30 00:00:00-04:00,149.3512479690596,150.5680441031326,148.80173196437767,150.32272338867188,178500,0.0,0.0
2024-09-03 00:00:00-04:00,149.26292143881992,149.5278719768961,146.92746367521593,147.23165893554688,362400,0.0,0.0
2024-09-04 00:00:00-04:00,146.79991305774996,148.07556872083794,146.79991305774996,147.90875244140625,175800,0.0,0.0
2024-09-05 00:00:00-04:00,148.25220343795263,148.9194685377967,147.14334911082645,147.89894104003906,200600,0.0,0.0
2024-09-06 00:00:00-04:00,147.5653122082446,150.2540174965452,147.5653122082446,149.5278778076172,319100,0.0,0.0
2024-09-09 00:00:00-04:00,149.71433118090496,150.19515019318135,148.60547677217497,149.06668090820312,241500,0.0,0.0
2024-09-10 00:00:00-04:00,149.02739566413877,149.93017393201126,148.60545129930958,148.67413330078125,158100,0.0,0.0
2024-09-11 00:00:00-04:00,147.96761072714563,148.05593754915932,145.84805148934413,148.0166778564453,178000,0.0,0.0
2024-09-12 00:00:00-04:00,148.06575815275983,149.16479007551516,147.1629797914698,149.11573791503906,200400,0.0,0.0
2024-09-13 00:00:00-04:00,149.34142142402513,150.14606547845202,149.05684104667466,149.4297332763672,138600,0.0,0.0
2024-09-16 00:00:00-04:00,150.1755017426937,150.30307328844557,149.22367127416078,150.12644958496094,182900,0.0,0.0
2024-09-17 00:00:00-04:00,151.11752528224721,152.65814620114944,149.02738848530092,150.16567993164062,259900,0.0,0.0
2024-09-18 00:00:00-04:00,150.88202856716077,152.5796584864247,149.85169366969927,150.2049560546875,214200,0.0,0.0
2024-09-19 00:00:00-04:00,152.11844037953324,155.837495029552,152.11844037953324,153.96324157714844,412400,0.0,0.0
2024-09-20 00:00:00-04:00,153.3842978658555,153.3842978658555,151.5885487113951,152.99179077148438,663300,0.0,0.0
2024-09-23 00:00:00-04:00,153.24692402795387,153.97307864741222,151.84369689396294,153.04086303710938,315800,0.0,0.0
2024-09-24 00:00:00-04:00,153.2567140603375,154.13987741179034,153.109527655021,153.69830322265625,246200,0.0,0.0
2024-09-25 00:00:00-04:00,154.3557850842914,154.9151084857173,152.95254291560093,154.1987762451172,284100,0.0,0.0
2024-09-26 00:00:00-04:00,154.98379108027459,156.08282290609407,154.74827784337654,155.41555786132812,371600,0.0,0.0
2024-09-27 00:00:00-04:00,155.70994955784363,158.52624141252562,155.297812573224,156.89730834960938,354300,0.0,0.0
2024-09-30 00:00:00-04:00,156.30851747856306,157.41737174073054,155.95525510134422,157.19168090820312,289800,0.0,0.0
2024-10-01 00:00:00-04:00,157.53512293074894,157.53512293074894,156.07302124547277,156.97579956054688,192200,0.0,0.0
2024-10-02 00:00:00-04:00,156.86786522775682,157.1131859218467,155.00343394194854,155.7786407470703,186900,0.0,0.0
2024-10-03 00:00:00-04:00,155.03287224162221,157.45664191294162,153.7081344955956,155.965087890625,367000,0.0,0.0
2024-10-04 00:00:00-04:00,156.94635103442477,158.44771230635385,156.3477680129038,157.57437133789062,350500,0.0,0.0
2024-10-07 00:00:00-04:00,156.4066673148656,156.65198801866413,155.05249223847767,155.7197723388672,223300,0.0,0.0
2024-10-08 00:00:00-04:00,155.31743459853183,156.04358923382046,154.15952812480893,155.70013427734375,205900,0.0,0.0
2024-10-09 00:00:00-04:00,155.38613840116977,157.05431617761042,155.16043257497606,156.7108612060547,152600,0.0,0.0
2024-10-10 00:00:00-04:00,155.0917386478585,156.39684647702796,155.0917386478585,156.23983764648438,168500,0.0,0.0
2024-10-11 00:00:00-04:00,157.92766198842554,158.88931497501125,157.34870870887204,158.5262451171875,194400,0.0,0.0
2024-10-14 00:00:00-04:00,161.90183478487612,164.6199770281407,160.40047348213315,164.06065368652344,469700,0.0,0.0
2024-10-15 00:00:00-04:00,164.1882208195928,166.48441863590148,163.3737544201633,165.5227508544922,397300,0.0,0.0
2024-10-16 00:00:00-04:00,165.5424057896614,166.03304719091895,162.81444079652437,162.93218994140625,330000,0.0,0.0
2024-10-17 00:00:00-04:00,163.8546028830086,165.16953325581113,163.40322116585736,164.74757385253906,238200,0.0,0.0
2024-10-18 00:00:00-04:00,165.9349131805859,165.9349131805859,164.6396128089946,165.4737091064453,171500,0.0,0.0
2024-10-21 00:00:00-04:00,165.31671090464823,165.33634075271212,163.18732907191952,163.21676635742188,217900,0.0,0.0
2024-10-22 00:00:00-04:00,162.61818533475102,163.2560131596747,161.72521440130814,162.7064971923828,228500,0.0,0.0
2024-10-23 00:00:00-04:00,163.39339265700085,164.83587956219833,163.04995266297445,164.51205444335938,318100,0.0,0.0
2024-10-24 00:00:00-04:00,165.61406215698588,165.6238959901865,163.47893428707053,163.8725128173828,547300,0.45,0.0
2024-10-25 00:00:00-04:00,166.204413911709,167.11947089355849,161.96370454661343,166.194580078125,518900,0.0,0.0
2024-10-28 00:00:00-04:00,167.1686425080967,168.65437700934277,166.0469700108999,166.3815155029297,350000,0.0,0.0
2024-10-29 00:00:00-04:00,166.31264221910413,166.76525378257975,164.94498870881085,165.98794555664062,338100,0.0,0.0
2024-10-30 00:00:00-04:00,165.64357635714168,167.4638263639047,165.41726307531505,166.31263732910156,290300,0.0,0.0
2024-10-31 00:00:00-04:00,166.37167045155186,167.5425421666506,165.1614483906913,165.2106475830078,329900,0.0,0.0
2024-11-01 00:00:00-04:00,165.39760088847163,168.2411401404729,164.92530664304553,166.68653869628906,316300,0.0,0.0
2024-11-04 00:00:00-05:00,166.90299370700552,167.82788445184153,165.47629223144753,165.5550079345703,191800,0.0,0.0
2024-11-05 00:00:00-05:00,165.04340582035766,167.62128171884723,165.04340582035766,167.57208251953125,206200,0.0,0.0
2024-11-06 00:00:00-05:00,172.33423456761616,172.33423456761616,169.3726295578274,170.37623596191406,264100,0.0,0.0
2024-11-07 00:00:00-05:00,171.39951070038683,172.63926420836194,170.7501174355889,171.9013214111328,412300,0.0,0.0
2024-11-08 00:00:00-05:00,171.89147621002377,174.98099618606105,171.6848606299699,172.93443298339844,309200,0.0,0.0
2024-11-11 00:00:00-05:00,173.48545653213273,175.16795787019572,173.07219531256996,173.31817626953125,189100,0.0,0.0
2024-11-12 00:00:00-05:00,173.8101212713204,174.39064768351193,172.1374539294353,172.87539672851562,179800,0.0,0.0
2024-11-13 00:00:00-05:00,172.6786346435547,173.55432626428455,172.2358719163967,172.6786346435547,168400,0.0,0.0
2024-11-14 00:00:00-05:00,172.3342401368319,172.96395074115134,171.11418428604836,171.30113220214844,198200,0.0,0.0
2024-11-15 00:00:00-05:00,170.18929849303566,170.96659167816782,163.498613744456,163.8134765625,620500,0.0,0.0
2024-11-18 00:00:00-05:00,163.71508900697032,165.12210792125381,161.68820827557767,164.01026916503906,384400,0.0,0.0
2024-11-19 00:00:00-05:00,163.74459395748048,164.97449868466995,163.52812952441627,164.2168731689453,287600,0.0,0.0
2024-11-20 00:00:00-05:00,164.3152721102554,166.2240866554903,162.98696899498788,166.0174560546875,221800,0.0,0.0
2024-11-21 00:00:00-05:00,165.9780847403341,167.49332057201346,165.04336026528307,167.14895629882812,205100,0.0,0.0
2024-11-22 00:00:00-05:00,167.44415655429708,169.30378707670408,167.44415655429708,168.75277709960938,241600,0.0,0.0
2024-11-25 00:00:00-05:00,169.2841049367157,171.2224361628456,168.97909093899247,169.72686767578125,270100,0.0,0.0
2024-11-26 00:00:00-05:00,170.08105561759376,170.08105561759376,168.40838828864082,169.27423095703125,140300,0.0,0.0
2024-11-27 00:00:00-05:00,169.89412910089996,171.08468356339304,168.76262268063928,168.96923828125,167200,0.0,0.0
2024-11-29 00:00:00-05:00,169.81541184718648,170.70095231078196,169.3234499274622,170.17947387695312,117300,0.0,0.0
2024-12-02 00:00:00-05:00,170.19913044726937,170.32704534237342,168.0935341686711,169.982666015625,170900,0.0,0.0
2024-12-03 00:00:00-05:00,170.6615714264747,170.6615714264747,168.33951077604863,169.62844848632812,160100,0.0,0.0
2024-12-04 00:00:00-05:00,169.12665553642208,170.11057930241756,168.28048049712658,169.81539916992188,173400,0.0,0.0
2024-12-05 00:00:00-05:00,169.24472446643097,169.66781950002706,167.78852147173296,168.349365234375,245000,0.0,0.0
2024-12-06 00:00:00-05:00,168.84133731004735,169.87444533346505,168.10339442847106,168.3985595703125,209200,0.0,0.0
2024-12-09 00:00:00-05:00,168.80195225603495,170.68125017844324,167.49333189708761,168.04432678222656,301700,0.0,0.0
2024-12-10 00:00:00-05:00,167.97546663297192,168.61501107586,165.48614070458325,168.16241455078125,287000,0.0,0.0
2024-12-11 00:00:00-05:00,169.1168064997398,171.30111826495536,168.98889161734488,169.53988647460938,418600,0.0,0.0
2024-12-12 00:00:00-05:00,168.910192781725,169.8252497001867,168.03450122184512,168.88067626953125,178300,0.0,0.0
2024-12-13 00:00:00-05:00,168.16241388859282,168.25096342400062,167.0899405904716,167.4638214111328,153200,0.0,0.0
2024-12-16 00:00:00-05:00,167.40479346088532,168.1820866510521,164.89578478723115,164.93515014648438,236100,0.0,0.0
2024-12-17 00:00:00-05:00,164.2168871744719,164.22673602176008,160.22215868202068,160.4681396484375,511900,0.0,0.0
2024-12-18 00:00:00-05:00,161.05850962083514,161.77676988202063,155.37143053769427,155.66661071777344,468600,0.0,0.0
2024-12-19 00:00:00-05:00,155.961750589169,158.97256992147132,155.68625313604096,156.3159637451172,404700,0.0,0.0
2024-12-20 00:00:00-05:00,156.16836637484445,157.21132306469937,154.93846178520732,155.6370391845703,730200,0.0,0.0
2024-12-23 00:00:00-05:00,154.64331540050958,156.34549951994808,154.43669979194954,155.97161865234375,194900,0.0,0.0
2024-12-24 00:00:00-05:00,156.2274252507946,156.8571359043753,155.38125015253118,156.78826904296875,100500,0.0,0.0
2024-12-26 00:00:00-05:00,155.8732153599991,157.06376983088433,155.8732153599991,156.2963104248047,164500,0.0,0.0
2024-12-27 00:00:00-05:00,155.28284707418268,157.01454739843217,155.07621648920878,155.60752868652344,145000,0.0,0.0
2024-12-30 00:00:00-05:00,154.47603655450243,154.9581646212153,152.50818895508203,154.2103729248047,221700,0.0,0.0
2024-12-31 00:00:00-05:00,154.7515314475807,155.70593871852984,153.66920928047796,154.57443237304688,317100,0.0,0.0
2025-01-02 00:00:00-05:00,155.11557062359762,155.56818214706553,150.98309394445656,151.6816864013672,239400,0.0,0.0
2025-01-03 00:00:00-05:00,151.56361721810913,153.2166170273575,150.41242816102755,153.00015258789062,250700,0.0,0.0
2025-01-06 00:00:00-05:00,151.52424827363242,152.15395883474972,149.00540602916325,150.46160888671875,369000,0.0,0.0
2025-01-07 00:00:00-05:00,153.41341590872167,153.5511646570755,150.146796299122,150.96343994140625,361200,0.0,0.0
2025-01-08 00:00:00-05:00,150.43210592610473,151.78007669861915,149.64496390044135,151.67184448242188,228600,0.0,0.0
2025-01-10 00:00:00-05:00,150.2648483292892,151.81944978034818,150.12709959380228,150.9831085205078,350800,0.0,0.0
2025-01-13 00:00:00-05:00,150.4714574429412,152.2130067485903,150.4714574429412,151.41603088378906,349300,0.0,0.0
2025-01-14 00:00:00-05:00,152.3212629867812,152.95097370882368,151.0126423429219,152.12448120117188,196900,0.0,0.0
2025-01-15 00:00:00-05:00,153.6101837863161,154.39732585429968,151.69153531737786,153.05918884277344,206100,0.0,0.0
2025-01-16 00:00:00-05:00,153.3838937065207,154.64331507721053,152.81321605206952,153.89553833007812,346300,0.0,0.0
2025-01-17 00:00:00-05:00,154.44651568260747,155.41075677533345,153.17724560925222,153.58065795898438,231900,0.0,0.0
2025-01-21 00:00:00-05:00,154.20054018392875,157.68362385364128,154.20054018392875,157.2605438232422,270900,0.0,0.0
2025-01-22 00:00:00-05:00,156.7783896627529,158.16572560253366,155.7944660198133,156.5127410888672,280000,0.0,0.0
2025-01-23 00:00:00-05:00,155.9125691247179,157.24085722252315,155.19429395404214,157.0539093017578,149800,0.0,0.0
2025-01-24 00:00:00-05:00,157.08341495914098,157.890239611219,154.69248754022158,155.755126953125,329600,0.0,0.0
2025-01-27 00:00:00-05:00,155.70592130255318,156.3651483620581,154.13163741985107,155.9125518798828,317000,0.0,0.0
2025-01-28 00:00:00-05:00,155.0368884561647,157.77219556170596,155.0368884561647,155.8732147216797,204300,0.0,0.0
2025-01-29 00:00:00-05:00,156.22740987357176,156.2667752306319,154.10213099686746,154.58425903320312,265800,0.0,0.0
2025-01-30 00:00:00-05:00,155.28286139023555,156.1290214456585,154.06279047284826,155.58787536621094,274200,0.0,0.0
2025-01-31 00:00:00-05:00,155.3615542633782,156.82760605708947,154.2398817878796,154.6236114501953,834100,0.0,0.0
2025-02-03 00:00:00-05:00,152.09495520009364,154.2300682184693,151.6620262906558,153.47244262695312,364600,0.0,0.0
2025-02-04 00:00:00-05:00,153.58067685362113,155.91258668917942,153.58067685362113,155.164794921875,302400,0.0,0.0
2025-02-05 00:00:00-05:00,156.18111830402617,157.54282355753207,155.6877485810399,156.22059631347656,262600,0.45,0.0
2025-02-06 00:00:00-05:00,157.72044313883632,157.72044313883632,153.3097162274687,154.37539672851562,446600,0.0,0.0
2025-02-07 00:00:00-05:00,155.5298778454868,155.80616370572014,140.15647436444476,141.28135681152344,1221500,0.0,0.0
2025-02-10 00:00:00-05:00,142.34703590173154,142.68253877711308,139.03159055496985,141.38003540039062,621900,0.0,0.0
2025-02-11 00:00:00-05:00,140.38342851707733,141.1728231038295,138.40007254760076,140.4031524658203,377300,0.0,0.0
2025-02-12 00:00:00-05:00,139.10066826882291,141.58725602014744,138.07445075906045,139.82098388671875,423500,0.0,0.0
2025-02-13 00:00:00-05:00,140.8570462749457,141.87338663024207,139.5841591015714,140.8767852783203,665900,0.0,0.0
2025-02-14 00:00:00-05:00,141.78459078054618,143.38310383541634,140.8274523311255,142.8699951171875,512800,0.0,0.0
2025-02-18 00:00:00-05:00,142.870005422231,145.3368541695041,141.99180787045978,144.9520263671875,489600,0.0,0.0
2025-02-19 00:00:00-05:00,144.20210468941022,145.53420898859972,143.6791339779238,145.0901641845703,331000,0.0,0.0
2025-02-20 00:00:00-05:00,145.0211024557617,145.46513221009104,143.9850229913602,144.7349395751953,283100,0.0,0.0
2025-02-21 00:00:00-05:00,145.08029719584493,145.43552399292116,143.2745622320782,144.39944458007812,451900,0.0,0.0
2025-02-24 00:00:00-05:00,144.2415718652718,145.33685330480253,142.44571381729563,143.67913818359375,353300,0.0,0.0
2025-02-25 00:00:00-05:00,143.94556191982593,146.3630706640838,143.78767998754833,145.7512969970703,336700,0.0,0.0
2025-02-26 00:00:00-05:00,144.70532706157428,147.2017765403377,144.67572608407497,144.69546508789062,735600,0.0,0.0
2025-02-27 00:00:00-05:00,144.2909024211125,145.22830186694557,143.4324439363373,143.69886779785156,262800,0.0,0.0
2025-02-28 00:00:00-05:00,144.22184344398863,145.00136099447968,142.7121332709692,144.80401611328125,348700,0.0,0.0
2025-03-03 00:00:00-05:00,145.02109923466546,146.86629720163523,143.75807393391779,144.64613342285156,394100,0.0,0.0
2025-03-04 00:00:00-05:00,143.61005592009485,145.9881016576862,143.21536615445163,144.0047607421875,490100,0.0,0.0
2025-03-05 00:00:00-05:00,144.11329675818794,146.87617017338948,144.11329675818794,146.4716033935547,445100,0.0,0.0
2025-03-06 00:00:00-05:00,145.60326942274776,149.4910252271253,145.10989970252623,149.14566040039062,471700,0.0,0.0
2025-03-07 00:00:00-05:00,148.5141409364155,151.32635423503427,147.2017757341566,150.75404357910156,480200,0.0,0.0
2025-03-10 00:00:00-04:00,150.0534734133287,151.95787329966407,148.24773843682507,148.5733642578125,391100,0.0,0.0
2025-03-11 00:00:00-04:00,148.34641815242486,148.56350205474928,145.31713560781648,145.9289093017578,304000,0.0,0.0
2025-03-12 00:00:00-04:00,146.27426779793447,146.27426779793447,143.62979812851043,144.09356689453125,299700,0.0,0.0
2025-03-13 00:00:00-04:00,144.4685375765296,145.24805517702276,141.85366879945948,142.8404083251953,238400,0.0,0.0
2025-03-14 00:00:00-04:00,143.30414962162507,144.94214053373426,142.6232970704202,144.71519470214844,223600,0.0,0.0
2025-03-17 00:00:00-04:00,144.56719705134603,146.0374443096502,143.92582240634974,145.8795623779297,225200,0.0,0.0
2025-03-18 00:00:00-04:00,145.43554311698776,145.57368605310205,143.8468918234482,144.36000061035156,219900,0.0,0.0
2025-03-19 00:00:00-04:00,144.39944743753657,145.5046058594481,143.54098893446837,145.0309600830078,279600,0.0,0.0
2025-03-20 00:00:00-04:00,144.19224217799055,145.46512945717194,141.82405843896925,143.27456665039062,332800,0.0,0.0
2025-03-21 00:00:00-04:00,142.09047886169986,143.53112506388518,140.4722267880329,142.8996124267578,601900,0.0,0.0
2025-03-24 00:00:00-04:00,143.817270903968,146.21504047479127,142.98841340218578,146.02757263183594,463800,0.0,0.0
2025-03-25 00:00:00-04:00,146.5209599792752,147.25113760406427,143.99489410489926,145.2579345703125,325200,0.0,0.0
2025-03-26 00:00:00-04:00,145.10002533045295,146.72813924549115,144.3599708133542,146.58999633789062,630400,0.0,0.0
2025-03-27 00:00:00-04:00,146.3137189545147,147.90237001169604,145.08029468826984,147.36953735351562,312700,0.0,0.0
2025-03-28 00:00:00-04:00,147.31033425484426,148.01092592907992,143.82714500249594,144.98162841796875,239800,0.0,0.0
2025-03-31 00:00:00-04:00,144.63626533277775,147.11297584539574,144.16263462913676,146.4123992919922,372500,0.0,0.0
2025-04-01 00:00:00-04:00,146.90576464125385,148.0405089128489,145.4256555618961,147.1228485107422,240000,0.0,0.0
2025-04-02 00:00:00-04:00,146.03742513786432,149.12592414972164,146.03742513786432,148.53387451171875,247600,0.0,0.0
2025-04-03 00:00:00-04:00,144.81387146268975,148.0602525772194,144.51786168265852,146.69854736328125,352900,0.0,0.0
2025-04-04 00:00:00-04:00,143.2943120074954,145.99798366938302,138.18299354627644,138.32113647460938,531600,0.0,0.0
2025-04-07 00:00:00-04:00,134.53203274645458,140.23538470433292,129.11484361760762,132.86444091796875,629900,0.0,0.0
2025-04-08 00:00:00-04:00,135.55829154812412,137.46269175579968,129.53917394413892,131.8876190185547,473800,0.0,0.0
2025-04-09 00:00:00-04:00,131.41395257461977,142.50490940034226,129.57863165389583,141.8437957763672,491800,0.0,0.0
2025-04-10 00:00:00-04:00,138.14351609300402,141.46882305517929,135.74574657648498,138.8934326171875,309000,0.0,0.0
2025-04-11 00:00:00-04:00,139.00197920039048,142.7910700685125,137.88697387874979,142.1990203857422,203000,0.0,0.0
2025-04-14 00:00:00-04:00,143.8666122599438,144.45864688553394,141.88325636462724,143.8567352294922,249300,0.0,0.0
2025-04-15 00:00:00-04:00,144.16264136826962,144.59679408397406,141.86353661587313,142.03128051757812,250700,0.0,0.0
2025-04-16 00:00:00-04:00,142.14968721036126,143.88635833288447,140.67945501993827,143.0772247314453,307700,0.0,0.0
2025-04-17 00:00:00-04:00,143.4719025184702,143.827129304186,138.84410738694922,141.9227294921875,390600,0.0,0.0
2025-04-21 00:00:00-04:00,141.39978475645773,142.1398394410975,139.22896069280472,140.6893310546875,291600,0.0,0.0
2025-04-22 00:00:00-04:00,142.58384632240936,144.87308900603063,141.68590983582783,144.0836944580078,217800,0.0,0.0
2025-04-23 00:00:00-04:00,145.90917104553122,147.33995542451333,145.26779636674308,146.0867919921875,537000,0.0,0.0
2025-04-24 00:00:00-04:00,145.96836437930722,149.98440129908244,143.53113171013078,149.45156860351562,424500,0.0,0.0
2025-04-25 00:00:00-04:00,148.84966144070935,150.97114536939864,145.61315704514936,147.08338928222656,220500,0.0,0.0
2025-04-28 00:00:00-04:00,147.81356949185763,149.02725477385636,146.3137213438059,147.7148895263672,235200,0.0,0.0
2025-04-29 00:00:00-04:00,147.7740980537582,149.9646608882986,147.03404344902023,148.30694580078125,359900,0.0,0.0
2025-04-30 00:00:00-04:00,147.09324271727854,148.0010411161194,145.25790691671284,147.96156311035156,556200,0.0,0.0
2025-05-01 00:00:00-04:00,146.92238394801444,148.98098168406787,145.44772634078012,146.75413513183594,445300,0.45,0.0
2025-05-02 00:00:00-04:00,151.41566994485422,151.4255616037469,146.2691681880173,150.43585205078125,431600,0.0,0.0
2025-05-05 00:00:00-04:00,149.87173036746051,151.6433191608006,149.3274021220667,149.9212188720703,267600,0.0,0.0
2025-05-06 00:00:00-04:00,148.70385505343256,150.47542844556375,147.8823943414243,149.36695861816406,312000,0.0,0.0
2025-05-07 00:00:00-04:00,150.31708590149762,151.57400611169496,149.0700422480403,149.83212280273438,318400,0.0,0.0
2025-05-08 00:00:00-04:00,150.2280090768683,152.9794155767693,149.68368089445295,151.7818603515625,302500,0.0,0.0
2025-05-09 00:00:00-04:00,152.3262040766549,152.71219020623604,151.3661845822508,151.74227905273438,231600,0.0,0.0
2025-05-12 00:00:00-04:00,154.18684266065333,154.97861331336063,152.1183533455545,153.9196319580078,352500,0.0,0.0
2025-05-13 00:00:00-04:00,154.70149791577734,154.70149791577734,151.62350059983459,152.05897521972656,339400,0.0,0.0
2025-05-14 00:00:00-04:00,152.03917218350202,152.03917218350202,149.4164479866586,150.91090393066406,350100,0.0,0.0
2025-05-15 00:00:00-04:00,150.78226337253412,153.88004414664275,150.78226337253412,153.35549926757812,278100,0.0,0.0
2025-05-16 00:00:00-04:00,153.58313194705545,155.5328611112219,152.99920689429524,155.39430236816406,278600,0.0,0.0
2025-05-19 00:00:00-04:00,154.75099115410438,156.71061190187558,154.70150265455177,156.4532928466797,185400,0.0,0.0
2025-05-20 00:00:00-04:00,158.61084438734758,158.61084438734758,156.28503604489993,156.89865112304688,388100,0.0,0.0
2025-05-21 00:00:00-04:00,155.24584191636762,156.02770582263278,154.2264422794775,154.84005737304688,319800,0.0,0.0
2025-05-22 00:00:00-04:00,154.75098526112157,155.64171781206997,153.9592146037401,155.03799438476562,278900,0.0,0.0
2025-05-23 00:00:00-04:00,153.52374279798673,154.57283251997325,152.67259196852737,154.33531188964844,260500,0.0,0.0
2025-05-27 00:00:00-04:00,155.414094045831,156.80958817721682,155.07759641325802,156.532470703125,352800,0.0,0.0
2025-05-28 00:00:00-04:00,156.5324623428064,157.20545757200804,155.64171470785442,155.7802734375,364400,0.0,0.0
2025-05-29 00:00:00-04:00,156.20587454930651,157.03722702384349,155.2062732479064,156.7007293701172,232100,0.0,0.0
2025-05-30 00:00:00-04:00,156.61164696065873,157.14608348083826,154.9291286191898,156.76998901367188,335100,0.0,0.0
2025-06-02 00:00:00-04:00,155.9188406286622,157.43311018008114,153.66230399382138,155.2953338623047,349600,0.0,0.0
2025-06-03 00:00:00-04:00,154.57282948083264,155.819873172597,154.39468901159154,154.65200805664062,397800,0.0,0.0
2025-06-04 00:00:00-04:00,154.87966472871315,154.90935480933607,148.74345296929266,148.8622283935547,831900,0.0,0.0
2025-06-05 00:00:00-04:00,150.020182784306,151.76206624139414,147.51621870771746,150.9208221435547,482400,0.0,0.0
2025-06-06 00:00:00-04:00,152.78146585654446,152.89033451642794,150.6437046015681,151.7323760986328,264700,0.0,0.0
2025-06-09 00:00:00-04:00,151.1385562627151,151.6037058706287,149.8024422920471,150.03997802734375,388400,0.0,0.0
2025-06-10 00:00:00-04:00,150.59420050272004,151.4255528547531,149.30757513784886,150.96038818359375,323500,0.0,0.0
2025-06-11 00:00:00-04:00,151.4255623288697,152.009487343491,150.0399749887904,150.35667419433594,380800,0.0,0.0
2025-06-12 00:00:00-04:00,149.85192452053215,153.02888367516888,149.85192452053215,152.7616729736328,337200,0.0,0.0
2025-06-13 00:00:00-04:00,151.42556949421294,152.13816161762142,149.17892446341756,149.60450744628906,361200,0.0,0.0
2025-06-16 00:00:00-04:00,149.6836620898465,151.32656829330398,149.5648866870926,150.1290283203125,346200,0.0,0.0
2025-06-17 00:00:00-04:00,149.10963397374292,149.70345060105046,147.5953796765448,147.91207885742188,379700,0.0,0.0
2025-06-18 00:00:00-04:00,147.5854820344273,149.17891500072886,147.5854820344273,148.15951538085938,383200,0.0,0.0
2025-06-20 00:00:00-04:00,148.74343491461926,149.21850635046175,147.45682463907613,148.7533416748047,570500,0.0,0.0
2025-06-23 00:00:00-04:00,147.95168891304158,152.35589347493396,147.95168891304158,152.20742797851562,356500,0.0,0.0
2025-06-24 00:00:00-04:00,152.97939928321904,152.97939928321904,151.60368862890812,152.28659057617188,246600,0.0,0.0
2025-06-25 00:00:00-04:00,152.2767059703511,152.93980953052548,151.1979262277585,152.34597778320312,264700,0.0,0.0
2025-06-26 00:00:00-04:00,152.93980831973192,153.9790063184346,151.5443142958103,152.89031982421875,658200,0.0,0.0
2025-06-27 00:00:00-04:00,153.06848600660535,154.5035618654326,152.64290303779003,154.216552734375,643100,0.0,0.0
2025-06-30 00:00:00-04:00,154.42437370138657,154.8895383794215,153.01898800881426,154.82025146484375,315500,0.0,0.0
2025-07-01 00:00:00-04:00,154.82025066701402,158.1555819691161,154.35510109314475,157.3737030029297,338300,0.0,0.0
2025-07-02 00:00:00-04:00,157.3836168741782,158.87807285808572,157.0174140714642,158.6702423095703,293500,0.0,0.0
2025-07-03 00:00:00-04:00,158.94735300202996,159.69952679136213,158.17538079404545,159.3828125,235100,0.0,0.0
2025-07-07 00:00:00-04:00,159.29375839991914,160.69914423117854,158.8978805973957,159.3036651611328,313900,0.0,0.0
2025-07-08 00:00:00-04:00,159.2442591859285,160.90697906856101,158.20507624877348,158.40301513671875,342700,0.0,0.0
2025-07-09 00:00:00-04:00,158.28422732458975,158.36340589391986,156.47307229507223,158.08628845214844,252800,0.0,0.0
2025-07-10 00:00:00-04:00,157.55188026598236,158.7098387344668,156.7007293701172,156.7007293701172,361600,0.0,0.0
2025-07-11 00:00:00-04:00,156.92834315017365,156.92834315017365,155.01821097581862,156.27513122558594,292000,0.0,0.0
2025-07-14 00:00:00-04:00,155.52296818339582,157.30444850944824,155.0776018773253,155.9386444091797,276600,0.0,0.0
2025-07-15 00:00:00-04:00,156.1168011741537,156.37412023917577,152.48456867448147,152.57363891601562,254200,0.0,0.0
2025-07-16 00:00:00-04:00,152.3361030888639,154.0087147650407,151.96991536157202,153.38519287109375,261900,0.0,0.0
2025-07-17 00:00:00-04:00,153.14765878683247,154.8004718970373,152.920014720651,154.42437744140625,397700,0.0,0.0
2025-07-18 00:00:00-04:00,155.23594716196223,155.59224319991026,153.32579989964464,154.77078247070312,243100,0.0,0.0
2025-07-21 00:00:00-04:00,154.81036123899986,155.05778861889246,153.64251125475573,153.850341796875,205900,0.0,0.0
2025-07-22 00:00:00-04:00,154.50355007338754,157.7201059364026,153.6326008840668,157.5320587158203,449900,0.0,0.0
2025-07-23 00:00:00-04:00,158.4228252977522,160.18450720404206,157.502387503022,159.9964599609375,450500,0.0,0.0
2025-07-24 00:00:00-04:00,159.748340930179,163.04334094404305,158.58713506443337,160.60186767578125,431900,0.45,0.0
2025-07-25 00:00:00-04:00,160.8301248100112,161.86228924605192,159.5696808618312,159.77810668945312,296300,0.0,0.0
2025-07-28 00:00:00-04:00,159.9865211622613,160.76064829360726,156.96941223290332,157.50534057617188,308500,0.0,0.0
2025-07-29 00:00:00-04:00,157.85271506176437,158.39857783036788,156.036489019279,157.62445068359375,388200,0.0,0.0
2025-07-30 00:00:00-04:00,157.604589521812,157.73360061087115,153.75379251207275,155.60971069335938,580700,0.0,0.0
2025-07-31 00:00:00-04:00,154.6073142621548,156.1655028465139,154.01182489938444,155.9570770263672,679700,0.0,0.0
2025-08-01 00:00:00-04:00,155.78836042379552,156.92969738141443,140.02789724626874,140.28594970703125,1012300,0.0,0.0
2025-08-04 00:00:00-04:00,142.04262679430818,142.04262679430818,136.04810093172827,138.08267211914062,839000,0.0,0.0
2025-08-05 00:00:00-04:00,138.29107880796994,140.00806669326315,136.6535056633714,139.16445922851562,540800,0.0,0.0
2025-08-06 00:00:00-04:00,139.2537809781534,139.7003904682946,136.5145629805525,137.49710083007812,515300,0.0,0.0
2025-08-07 00:00:00-04:00,138.74761061171503,140.42489098048776,137.8643109975234,139.4324188232422,564000,0.0,0.0
2025-08-08 00:00:00-04:00,139.63091429693503,140.98067707589914,139.52174175069808,139.69046020507812,428700,0.0,0.0
2025-08-11 00:00:00-04:00,140.26609366892225,140.55390393503043,138.1521230997788,138.81707763671875,349500,0.0,0.0
2025-08-12 00:00:00-04:00,139.16444275983682,140.0278886636534,138.1818899029979,138.4300079345703,286100,0.0,0.0
2025-08-13 00:00:00-04:00,138.63843411547916,140.37526034113446,138.2017439557153,140.36532592773438,729900,0.0,0.0
2025-08-14 00:00:00-04:00,139.13467885374612,139.13467885374612,135.41290813818017,137.29859924316406,875800,0.0,0.0
2025-08-15 00:00:00-04:00,137.31844490006762,137.90399982387856,136.832128103183,137.6757354736328,770500,0.0,0.0
2025-08-18 00:00:00-04:00,137.84446193662134,138.51935090102052,136.31606142653533,136.85198974609375,529500,0.0,0.0
2025-08-19 00:00:00-04:00,137.2291443142154,139.4622069103412,137.2291443142154,138.53919982910156,333100,0.0,0.0
2025-08-20 00:00:00-04:00,138.85678922638783,140.18669834070658,138.21167320961604,140.11721801757812,519200,0.0,0.0
2025-08-21 00:00:00-04:00,139.571379557282,140.8318084309671,139.18431597945528,139.581298828125,270400,0.0,0.0
2025-08-22 00:00:00-04:00,140.1966074830843,142.25103205908528,140.127142308898,140.36532592773438,356500,0.0,0.0
2025-08-25 00:00:00-04:00,139.90880407770842,140.54398566556975,137.91394045268862,138.50941467285156,245800,0.0,0.0
2025-08-26 00:00:00-04:00,138.0231130894521,139.10490412913347,136.97107985967878,138.65829467773438,442900,0.0,0.0
2025-08-27 00:00:00-04:00,138.0429485121284,139.51181820629935,137.98340260580963,138.39031982421875,729100,0.0,0.0
2025-08-28 00:00:00-04:00,139.11481500420123,139.11481500420123,136.3656629962245,137.84445190429688,320800,0.0,0.0
2025-08-29 00:00:00-04:00,138.12235011895848,138.81707760936152,137.30853081417874,138.2216033935547,370700,0.0,0.0
2025-09-02 00:00:00-04:00,136.3855243788287,137.4871690980893,135.1449341609192,135.3831329345703,310600,0.0,0.0
2025-09-03 00:00:00-04:00,135.05562942608722,135.15486756754578,133.42797549570034,134.2021026611328,382300,0.0,0.0
2025-09-04 00:00:00-04:00,135.3235923742518,137.43754789123142,134.02344105361325,137.41770935058594,401800,0.0,0.0
2025-09-05 00:00:00-04:00,137.97349027820903,139.7599432772732,136.59395451802803,137.5764923095703,440800,0.0,0.0
2025-09-08 00:00:00-04:00,137.54672141344943,138.9461108789868,136.6435680581942,137.2589111328125,616100,0.0,0.0
2025-09-09 00:00:00-04:00,137.21920875563913,138.43002612029278,134.0830079339389,136.01832580566406,637100,0.0,0.0
2025-09-10 00:00:00-04:00,135.1052581464342,136.42524811392565,133.83489482239776,135.22434997558594,685100,0.0,0.0
2025-09-11 00:00:00-04:00,135.72057605320697,137.23905733793734,134.84719565375582,136.0679473876953,477500,0.0,0.0
2025-09-12 00:00:00-04:00,135.59154130836964,136.0183122109246,134.202086345472,134.21200561523438,261300,0.0,0.0
2025-09-15 00:00:00-04:00,134.94644868156496,135.14494009636334,133.61653954409923,133.8348846435547,298000,0.0,0.0
2025-09-16 00:00:00-04:00,133.77531755009446,134.40057986520893,133.0905244715447,134.19216918945312,474800,0.0,0.0
2025-09-17 00:00:00-04:00,134.400575587119,136.0381637069778,133.17983909335013,133.63636779785156,377400,0.0,0.0
2025-09-18 00:00:00-04:00,133.88448585084808,134.48989446301076,133.0607472999319,133.4875030517578,254800,0.0,0.0
2025-09-19 00:00:00-04:00,133.64632363327092,134.0830138685628,132.33625292739535,133.427978515625,877200,0.0,0.0
2025-09-22 00:00:00-04:00,133.11037182482866,133.92420632974697,131.67129010732083,131.72091674804688,402100,0.0,0.0
2025-09-23 00:00:00-04:00,132.00872186790292,132.9416481589146,130.97655744324732,131.02618408203125,319700,0.0,0.0
2025-09-24 00:00:00-04:00,131.00633744504515,132.30647367393394,130.35130212327797,130.51010131835938,353300,0.0,0.0
2025-09-25 00:00:00-04:00,130.51009416312277,131.52242004635977,129.28935759870177,129.83522033691406,388700,0.0,0.0
2025-09-26 00:00:00-04:00,130.34137882356993,131.4330891821779,129.97416894722923,131.2941436767578,274400,0.0,0.0
2025-09-29 00:00:00-04:00,131.40330307035197,131.68119405336847,130.3711387254224,131.2742919921875,540600,0.0,0.0
2025-09-30 00:00:00-04:00,130.71852133224422,132.75307724589,130.71852133224422,132.65383911132812,310400,0.0,0.0
2025-10-01 00:00:00-04:00,132.32631845773457,133.34856359842706,131.3139925870956,133.13021850585938,310100,0.0,0.0
2025-10-02 00:00:00-04:00,132.65384203252245,133.37834252086736,131.95911449959414,132.1774444580078,398500,0.0,0.0
2025-10-03 00:00:00-04:00,131.47279367640735,132.5744384252611,131.43308630777042,132.21714782714844,402000,0.0,0.0
2025-10-06 00:00:00-04:00,131.8896290111026,132.19729296764606,130.4207744069965,130.88723754882812,447100,0.0,0.0
2025-10-07 00:00:00-04:00,131.11549549226888,131.51247829212605,128.8328065332823,129.60693359375,438800,0.0,0.0
2025-10-08 00:00:00-04:00,130.1924917880393,131.01624550512267,129.27941921033712,130.6192626953125,361300,0.0,0.0
2025-10-09 00:00:00-04:00,130.70857626358662,131.83999388405067,129.21986807119058,129.6267852783203,554200,0.0,0.0
2025-10-10 00:00:00-04:00,129.95430086831624,131.01623815413373,128.91220212112975,129.94436645507812,426000,0.0,0.0
2025-10-13 00:00:00-04:00,130.00393866771898,131.35370146275474,129.1801849261088,129.23973083496094,311400,0.0,0.0
2025-10-14 00:00:00-04:00,129.0610901520414,130.07341612989566,128.06861786032061,128.82290649414062,337400,0.0,0.0
2025-10-15 00:00:00-04:00,128.82289614269973,129.4084511132212,126.89749762844694,127.13569641113281,438300,0.0,0.0
2025-10-16 00:00:00-04:00,127.47313242398477,128.52515053818064,126.88756988565697,128.18771362304688,352700,0.0,0.0
2025-10-17 00:00:00-04:00,128.18771054309016,129.120636816335,127.88004658998253,128.36634826660156,339700,0.0,0.0
2025-10-20 00:00:00-04:00,128.63431403654306,129.1106964210944,127.05628697626973,129.02137756347656,240500,0.0,0.0
2025-10-21 00:00:00-04:00,129.6267893910326,130.7780607308871,128.14800042118895,129.58709716796875,311600,0.0,0.0
2025-10-22 00:00:00-04:00,129.66648758385847,131.11550366713516,129.001533023481,129.0809326171875,357500,0.0,0.0
2025-10-23 00:00:00-04:00,129.24032557401767,131.02342489019046,129.16063186156003,130.266357421875,378600,0.48,0.0
2025-10-24 00:00:00-04:00,130.2464294932207,130.38588968926612,128.04493439848073,128.38363647460938,489300,0.0,0.0
2025-10-27 00:00:00-04:00,128.64262593461441,129.39969337705932,127.95528098817398,128.2840118408203,521700,0.0,0.0
2025-10-28 00:00:00-04:00,128.25413419657656,128.61274830602028,126.9790651852259,127.60664367675781,413500,0.0,0.0
2025-10-29 00:00:00-04:00,126.78979272467178,127.00894663290282,122.94465851664737,123.83123016357422,651100,0.0,0.0
2025-10-30 00:00:00-04:00,123.5622752273834,125.03657092289914,122.56612661149028,123.88104248046875,702600,0.0,0.0
2025-10-31 00:00:00-04:00,114.84597369201094,117.64514884272785,102.8324239362538,115.56320190429688,2758200,0.0,0.0
2025-11-03 00:00:00-05:00,115.6428887968913,115.6428887968913,107.87293417806934,112.68433380126953,1661000,0.0,0.0
2025-11-04 00:00:00-05:00,113.919556689229,115.55323981656579,112.09660289225816,113.74024963378906,1029100,0.0,0.0
2025-11-05 00:00:00-05:00,113.88967105472761,115.59308424562619,112.33567407354856,115.12489318847656,896900,0.0,0.0
2025-11-06 00:00:00-05:00,114.57700684246853,116.50953752835609,113.36171195341622,115.7026596069336,880300,0.0,0.0
2025-11-07 00:00:00-05:00,115.78235588701804,116.46969325755225,114.24828612088064,115.77239227294922,697200,0.0,0.0
2025-11-10 00:00:00-05:00,115.5432729820834,116.32026766733067,113.56093941331017,115.93177032470703,514000,0.0,0.0
2025-11-11 00:00:00-05:00,116.50953904136568,119.04972100477185,116.50953904136568,117.81449127197266,484800,0.0,0.0
2025-11-12 00:00:00-05:00,117.8842173531296,119.20909676654827,117.45588076684714,117.70491790771484,547500,0.0,0.0
2025-11-13 00:00:00-05:00,117.8443842573739,121.41059052496826,117.8443842573739,119.737060546875,679400,0.0,0.0
2025-11-14 00:00:00-05:00,119.30871137736264,120.22517384155344,117.93402908109216,118.15318298339844,521200,0.0,0.0
2025-11-17 00:00:00-05:00,118.03364629792767,119.02979490477999,117.11719140362612,118.88037109375,820200,0.0,0.0
2025-11-18 00:00:00-05:00,119.19914484456227,119.64740867350712,117.60530100829023,118.8504867553711,817400,0.0,0.0
2025-11-19 00:00:00-05:00,119.04971870763417,119.04971870763417,117.25664822688579,117.5455322265625,598900,0.0,0.0
2025-11-20 00:00:00-05:00,117.54553065339863,119.14933045082296,116.91795979354102,118.12329864501953,507400,0.0,0.0
2025-11-21 00:00:00-05:00,117.67502837581664,121.76919962522595,117.67502837581664,121.05197143554688,509100,0.0,0.0
2025-11-24 00:00:00-05:00,120.38455190510423,121.92858521245563,119.9761349476823,121.00216674804688,740000,0.0,0.0
2025-11-25 00:00:00-05:00,121.93855251914646,123.60211884002427,121.93855251914646,122.96458435058594,543600,0.0,0.0
2025-11-26 00:00:00-05:00,122.54619448390098,124.04041734800323,122.54619448390098,123.3331527709961,538000,0.0,0.0
2025-11-28 00:00:00-05:00,123.1538497021488,125.5944183523718,123.1538497021488,124.26953887939453,315700,0.0,0.0
2025-12-01 00:00:00-05:00,124.3990349156279,124.47872862794028,122.5561615184654,122.8051986694336,536800,0.0,0.0
2025-12-02 00:00:00-05:00,123.29330872615562,123.38296605205076,120.33475377180815,121.13166809082031,325400,0.0,0.0
2025-12-03 00:00:00-05:00,120.98224589440565,123.78142866229517,120.94240663793282,121.58989715576172,543100,0.0,0.0
2025-12-04 00:00:00-05:00,121.72935588012562,123.60212011213446,121.46039910213004,121.550048828125,708000,0.0,0.0
2025-12-05 00:00:00-05:00,121.52016157322772,123.0343116512343,120.15544290029952,121.44047546386719,537000,0.0,0.0
2025-12-08 00:00:00-05:00,120.45428397361297,121.62973959717331,118.84052814466453,119.60755920410156,496600,0.0,0.0
2025-12-09 00:00:00-05:00,119.13936863432369,119.38840577929511,114.91570078361141,115.2743148803711,640300,0.0,0.0
2025-12-10 00:00:00-05:00,115.72257853337636,117.34630558024035,114.68658309979747,116.7187271118164,734700,0.0,0.0
2025-12-11 00:00:00-05:00,117.50568574674746,118.21295032752096,116.70877144165544,117.55549621582031,389700,0.0,0.0
2025-12-12 00:00:00-05:00,118.06352393728298,121.17151017917278,117.196879554456,121.00216674804688,656400,0.0,0.0
2025-12-15 00:00:00-05:00,121.01213143800062,121.98835277906521,120.01598286956141,121.85885620117188,588600,0.0,0.0
2025-12-16 00:00:00-05:00,122.19754617074564,123.37300181536564,119.0596765804455,122.35693359375,644800,0.0,0.0
2025-12-17 00:00:00-05:00,121.63970423659477,124.12011208349313,119.6175238264721,123.15384674072266,567300,0.0,0.0
2025-12-18 00:00:00-05:00,123.19369468787343,123.64196611478646,121.56001160314787,122.14774322509766,457100,0.0,0.0
2025-12-19 00:00:00-05:00,122.86496444856809,123.85115703275031,120.79298114041151,120.92247772216797,1300400,0.0,0.0
2025-12-22 00:00:00-05:00,120.92247390417073,123.22357466125312,120.60370666682594,122.26727294921875,527800,0.0,0.0
2025-12-23 00:00:00-05:00,122.39677984292547,122.55615966512936,120.85274649026779,121.71939849853516,311700,0.0,0.0
2025-12-24 00:00:00-05:00,122.0580830371269,122.69561751377475,121.29105198241356,122.27723693847656,198000,0.0,0.0
2025-12-26 00:00:00-05:00,121.89870630347777,123.00443185190434,121.25120819673985,122.77531433105469,306000,0.0,0.0
2025-12-29 00:00:00-05:00,122.81515971406309,123.83122792475147,121.84889437252,122.73546600341797,400200,0.0,0.0
2025-12-30 00:00:00-05:00,122.32704703122806,123.82126988128373,121.94850571187395,122.26727294921875,289800,0.0,0.0
2025-12-31 00:00:00-05:00,121.05197234327426,122.85500644474074,120.8826289083331,121.49028015136719,314300,0.0,0.0
2026-01-02 00:00:00-05:00,121.27112467453803,122.52627399961013,120.31482296020086,122.06804656982422,295100,0.0,0.0
2026-01-05 00:00:00-05:00,121.29105352059696,124.10019221895458,121.29105352059696,122.52627563476562,435700,0.0,0.0
2026-01-06 00:00:00-05:00,121.74928292899573,122.37685381006916,119.64740877808522,120.09567260742188,777200,0.0,0.0
2026-01-07 00:00:00-05:00,120.20524516718837,121.48031411070211,117.15703299910017,119.97613525390625,478500,0.0,0.0
2026-01-08 00:00:00-05:00,119.45813846313783,122.89485569818288,119.0596775025515,121.96843719482422,330000,0.0,0.0
2026-01-09 00:00:00-05:00,121.60982144195128,124.48869025314991,120.99220658141333,123.37300109863281,429100,0.0,0.0
2026-01-12 00:00:00-05:00,123.5224261097117,124.81742232667263,122.50635788410425,124.6480712890625,477300,0.0,0.0
2026-01-13 00:00:00-05:00,124.56838640898677,124.95688375791437,122.06805127613653,123.02435302734375,351900,0.0,0.0
2026-01-14 00:00:00-05:00,123.63200512032016,126.67026143373172,123.63200512032016,126.3614501953125,611700,0.0,0.0
2026-01-15 00:00:00-05:00,126.65033136548587,126.73002507684,124.04041931871804,124.6281509399414,381000,0.0,0.0
2026-01-16 00:00:00-05:00,123.52242596027686,124.71780123601722,122.76535089896896,124.22969055175781,363400,0.0,0.0
2026-01-20 00:00:00-05:00,124.41895904968523,125.0465299185149,122.9645830361994,123.3431167602539,275100,0.0,0.0
2026-01-21 00:00:00-05:00,123.8312253817379,125.13618516671866,123.4228084230874,124.52853393554688,421000,0.0,0.0
2026-01-22 00:00:00-05:00,124.56838384921164,125.9231465355853,123.58219127603556,123.99061584472656,369700,0.0,0.0
2026-01-23 00:00:00-05:00,123.8611143925338,125.79364512595791,123.39293093032236,125.51472473144531,429500,0.0,0.0
2026-01-26 00:00:00-05:00,125.93310290002078,126.50090729221316,124.61818706546947,125.86337280273438,315400,0.0,0.0
2026-01-27 00:00:00-05:00,124.46876518523668,125.8135718823247,123.69177048914806,124.25957489013672,303100,0.0,0.0
2026-01-28 00:00:00-05:00,123.72165370927159,124.58830573168342,122.77531557446258,123.22357940673828,347800,0.0,0.0
2026-01-29 00:00:00-05:00,123.81130890933785,124.7974938834136,122.1178517498024,123.37300109863281,386000,0.0,0.0
2026-01-30 00:00:00-05:00,122.43662879089985,124.52853934314632,122.18759163944166,124.46876525878906,512700,0.0,0.0
2026-02-02 00:00:00-05:00,123.72164944172175,125.42507018563877,123.72164944172175,124.34922790527344,489100,0.0,0.0
2026-02-03 00:00:00-05:00,123.43277330805162,127.43728722684571,123.21361940602614,124.14999389648438,658700,0.0,0.0
2026-02-04 00:00:00-05:00,125.70999908447266,130.4199981689453,124.69999694824219,129.22999572753906,589400,0.48,0.0
2026-02-05 00:00:00-05:00,127.66999816894531,129.0800018310547,121.95999908447266,123.9800033569336,2144200,0.0,0.0
2026-02-06 00:00:00-05:00,127.52999877929688,135.99000549316406,127.52999877929688,134.30999755859375,1045700,0.0,0.0
2026-02-09 00:00:00-05:00,133.5800018310547,139.57000732421875,133.25,138.47000122070312,1043400,0.0,0.0
2026-02-10 00:00:00-05:00,137.80999755859375,140.92999267578125,137.80999755859375,140.1699981689453,622100,0.0,0.0
2026-02-11 00:00:00-05:00,139.02999877929688,140.5500030517578,138.60000610351562,140.00999450683594,584300,0.0,0.0
2026-02-12 00:00:00-05:00,140.16000366210938,142.0,139.38999938964844,140.50999450683594,572700,0.0,0.0
2026-02-13 00:00:00-05:00,140.50999450683594,142.92999267578125,140.41000366210938,142.5800018310547,471900,0.0,0.0
2026-02-17 00:00:00-05:00,139.25999450683594,143.6199951171875,139.25999450683594,141.64999389648438,614700,0.0,0.0
2026-02-18 00:00:00-05:00,141.47000122070312,143.11000061035156,140.83999633789062,141.72000122070312,582000,0.0,0.0
2026-02-19 00:00:00-05:00,141.64999389648438,143.32000732421875,141.02999877929688,143.16000366210938,525500,0.0,0.0
2026-02-20 00:00:00-05:00,143.1199951171875,145.13999938964844,142.0,145.0500030517578,664500,0.0,0.0
2026-02-23 00:00:00-05:00,143.49000549316406,146.24000549316406,143.1300048828125,145.72000122070312,513500,0.0,0.0
2026-02-24 00:00:00-05:00,146.07000732421875,146.91000366210938,143.85000610351562,144.13999938964844,429800,0.0,0.0
2026-02-25 00:00:00-05:00,142.41000366210938,143.66000366210938,140.42999267578125,142.67999267578125,348900,0.0,0.0
2026-02-26 00:00:00-05:00,143.52000427246094,143.9199981689453,141.0,141.7899932861328,331300,0.0,0.0
2026-02-27 00:00:00-05:00,141.52999877929688,144.00999450683594,141.0,143.7100067138672,344600,0.0,0.0
2026-03-02 00:00:00-05:00,143.0,143.35000610351562,141.6199951171875,142.6699981689453,335000,0.0,0.0
2026-03-03 00:00:00-05:00,140.63999938964844,141.32000732421875,136.9199981689453,139.75999450683594,347300,0.0,0.0
2026-03-04 00:00:00-05:00,139.33999633789062,139.50999450683594,136.00999450683594,137.0399932861328,389000,0.0,0.0
2026-03-05 00:00:00-05:00,136.0,136.33999633789062,134.41000366210938,134.72999572753906,452300,0.0,0.0
2026-03-06 00:00:00-05:00,134.0,134.0,131.0,132.0800018310547,398500,0.0,0.0
2026-03-09 00:00:00-04:00,130.97000122070312,133.97999572753906,127.52999877929688,133.75,545700,0.0,0.0
2026-03-10 00:00:00-04:00,133.35000610351562,134.1300048828125,131.39999389648438,132.1300048828125,503100,0.0,0.0
2026-03-11 00:00:00-04:00,131.8000030517578,133.27999877929688,130.0399932861328,132.02000427246094,563800,0.0,0.0
2026-03-12 00:00:00-04:00,131.27000427246094,132.7899932861328,128.63999938964844,128.86000061035156,620600,0.0,0.0
2026-03-13 00:00:00-04:00,130.14999389648438,130.14999389648438,127.05000305175781,128.64999389648438,660600,0.0,0.0
2026-03-16 00:00:00-04:00,129.47999572753906,131.41000366210938,126.0,129.0500030517578,370700,0.0,0.0
2026-03-17 00:00:00-04:00,129.97000122070312,131.0175018310547,128.24009704589844,129.5,214255,0.0,0.0
